time_s,ir,bpm,avg_bpm
0.0589451789855957,605.0,0.0,0.0
0.21652626991271973,605.0,0.0,0.0
0.24401593208312988,607.0,0.0,0.0
0.27896595001220703,597.0,0.0,0.0
0.30661606788635254,603.0,0.0,0.0
0.35686469078063965,600.0,0.0,0.0
0.4168398380279541,587.0,0.0,0.0
0.47687244415283203,585.0,0.0,0.0
0.5368165969848633,593.0,0.0,0.0
0.5968575477600098,608.0,0.0,0.0
0.6568958759307861,662.0,0.0,0.0
0.7169134616851807,712.0,0.0,0.0
0.7768914699554443,761.0,0.0,0.0
0.8368711471557617,984.0,0.0,0.0
0.8948547840118408,1380.0,0.0,0.0
0.954827070236206,2373.0,0.0,0.0
1.015890121459961,4171.0,0.0,0.0
1.0758166313171387,7100.0,0.0,0.0
1.135829210281372,14767.0,0.0,0.0
1.1958580017089844,24031.0,0.0,0.0
1.2559161186218262,43565.0,0.0,0.0
1.3138463497161865,64627.0,0.0,0.0
1.3739128112792969,74890.0,0.0,0.0
1.433828353881836,79059.0,0.0,0.0
1.4938650131225586,78182.0,0.0,0.0
1.5538709163665771,82208.0,0.0,0.0
1.6138694286346436,90706.0,0.0,0.0
1.6738526821136475,95241.0,0.0,0.0
1.7338662147521973,97614.0,0.0,0.0
1.7938122749328613,98230.0,0.0,0.0
1.852907419204712,97314.0,0.0,0.0
1.912843942642212,95014.0,0.0,0.0
1.9728538990020752,94759.0,0.0,0.0
2.0328426361083984,95284.0,0.0,0.0
2.091853380203247,94021.0,0.0,0.0
2.151826858520508,91532.0,0.0,0.0
2.2118260860443115,92029.0,0.0,0.0
2.271820306777954,92312.0,0.0,0.0
2.3318898677825928,94718.0,0.0,0.0
2.391873359680176,94969.0,0.0,0.0
2.451871633529663,93493.0,0.0,0.0
2.5118415355682373,91734.0,0.0,0.0
2.571873664855957,91242.0,0.0,0.0
2.6318790912628174,94379.0,0.0,0.0
2.6917898654937744,95394.0,0.0,0.0
2.7508795261383057,94934.0,0.0,0.0
2.8108506202697754,92893.0,0.0,0.0
2.870903253555298,93350.0,0.0,0.0
2.930891513824463,95236.0,0.0,0.0
2.990861654281616,96898.0,0.0,0.0
3.0507900714874268,97522.0,0.0,0.0
3.1108591556549072,96830.0,0.0,0.0
3.1707875728607178,95833.0,0.0,0.0
3.230785369873047,96334.0,0.0,0.0
3.288827657699585,97201.0,0.0,0.0
3.3488588333129883,96776.0,0.0,0.0
3.408815383911133,96917.0,0.0,0.0
3.4688527584075928,96622.0,0.0,0.0
3.5288684368133545,97009.0,0.0,0.0
3.5888302326202393,97747.0,0.0,0.0
3.648812770843506,98245.0,0.0,0.0
3.708872079849243,98507.0,0.0,0.0
3.7688562870025635,99098.0,0.0,0.0
3.828857660293579,99493.0,0.0,0.0
3.8887829780578613,100365.0,0.0,0.0
3.9488704204559326,100520.0,0.0,0.0
4.0088279247283936,100300.0,0.0,0.0
4.066798448562622,100593.0,0.0,0.0
4.126862525939941,100792.0,0.0,0.0
4.1868462562561035,100798.0,0.0,0.0
4.246813058853149,100603.0,0.0,0.0
4.306825399398804,99766.0,0.0,0.0
4.366857051849365,99749.0,0.0,0.0
4.426782846450806,99712.0,0.0,0.0
4.486776351928711,99712.0,0.0,0.0
4.546858310699463,99488.0,0.0,0.0
4.606795310974121,99504.0,0.0,0.0
4.666869878768921,99458.0,0.0,0.0
4.726778745651245,98050.0,0.0,0.0
4.786804676055908,98037.0,0.0,0.0
4.844795227050781,98556.0,0.0,0.0
4.904798746109009,98103.0,0.0,0.0
4.964800834655762,98626.0,0.0,0.0
5.024891376495361,99731.0,0.0,0.0
5.084803819656372,100891.0,0.0,0.0
5.144900321960449,101456.0,0.0,0.0
5.204854965209961,101451.0,0.0,0.0
5.264838457107544,101317.0,0.0,0.0
5.324799299240112,101110.0,0.0,0.0
5.384823322296143,101643.0,0.0,0.0
5.4447948932647705,101598.0,0.0,0.0
5.504891872406006,101027.0,0.0,0.0
5.5648033618927,100673.0,0.0,0.0
5.6228625774383545,100456.0,0.0,0.0
5.682851552963257,99699.0,0.0,0.0
5.74280571937561,98407.0,0.0,0.0
5.802760124206543,98307.0,0.0,0.0
5.862804651260376,98401.0,0.0,0.0
5.922785758972168,97376.0,0.0,0.0
5.98277735710144,97405.0,0.0,0.0
6.042787790298462,98445.0,0.0,0.0
6.102793455123901,98797.0,0.0,0.0
6.162809133529663,98746.0,0.0,0.0
6.222794771194458,98672.0,0.0,0.0
6.2828147411346436,99524.0,0.0,0.0
6.342772722244263,100387.0,0.0,0.0
6.400815010070801,100536.0,0.0,0.0
6.460797309875488,100316.0,0.0,0.0
6.520819425582886,99860.0,0.0,0.0
6.580818176269531,99753.0,0.0,0.0
6.640927314758301,100468.0,0.0,0.0
6.700806617736816,100324.0,0.0,0.0
6.76084566116333,100053.0,0.0,0.0
6.8208229541778564,99908.0,0.0,0.0
6.880841255187988,99547.0,0.0,0.0
6.94081449508667,99178.0,0.0,0.0
7.000783443450928,100358.0,0.0,0.0
7.060762882232666,101393.0,0.0,0.0
7.120844602584839,100837.0,0.0,0.0
7.178788661956787,101295.0,0.0,0.0
7.238805532455444,101842.0,0.0,0.0
7.298800468444824,101779.0,0.0,0.0
7.35876989364624,101458.0,0.0,0.0
7.4187774658203125,101039.0,0.0,0.0
7.47880744934082,101158.0,0.0,0.0
7.538771152496338,101930.0,0.0,0.0
7.598764181137085,101723.0,0.0,0.0
7.658815622329712,100589.0,0.0,0.0
7.718775033950806,99863.0,0.0,0.0
7.7787840366363525,100296.0,0.0,0.0
7.838773012161255,100720.0,0.0,0.0
7.898807764053345,100816.0,0.0,0.0
7.956736087799072,100434.0,0.0,0.0
8.01683259010315,99283.0,0.0,0.0
8.07683801651001,98720.0,0.0,0.0
8.136732816696167,99269.0,0.0,0.0
8.196789026260376,99453.0,0.0,0.0
8.256823301315308,99032.0,0.0,0.0
8.316797494888306,98642.0,0.0,0.0
8.376739978790283,98463.0,0.0,0.0
8.436731815338135,98324.0,0.0,0.0
8.496752977371216,98919.0,0.0,0.0
8.556774854660034,99331.0,0.0,0.0
8.61677074432373,99295.0,0.0,0.0
8.675723791122437,99337.0,0.0,0.0
8.73482370376587,98731.0,0.0,0.0
8.794775247573853,97479.0,0.0,0.0
8.85486388206482,96058.0,0.0,0.0
8.914760828018188,96697.0,0.0,0.0
8.97475814819336,97819.0,0.0,0.0
9.034771203994751,98225.0,0.0,0.0
9.094727039337158,98275.0,0.0,0.0
9.154768705368042,98806.0,0.0,0.0
9.214781522750854,99180.0,0.0,0.0
9.27478313446045,98816.0,0.0,0.0
9.334782838821411,98594.0,0.0,0.0
9.394766807556152,98932.0,0.0,0.0
9.454810619354248,98778.0,0.0,0.0
9.5127534866333,98378.0,0.0,0.0
9.57278060913086,97955.0,0.0,0.0
9.632747411727905,98287.0,0.0,0.0
9.692800521850586,98648.0,0.0,0.0
9.752777099609375,98742.0,0.0,0.0
9.812753677368164,98498.0,0.0,0.0
9.87275743484497,97527.0,0.0,0.0
9.932808637619019,98093.0,0.0,0.0
9.992761850357056,98903.0,0.0,0.0
10.052721500396729,98478.0,0.0,0.0
10.112751960754395,97567.0,0.0,0.0
10.17275857925415,97960.0,0.0,0.0
10.23275899887085,98129.0,0.0,0.0
10.290757894515991,98279.0,0.0,0.0
10.350738763809204,98793.0,0.0,0.0
10.410696744918823,98800.0,0.0,0.0
10.470723390579224,97527.0,0.0,0.0
10.530789136886597,97282.0,0.0,0.0
10.590778827667236,97891.0,0.0,0.0
10.650780439376831,98273.0,0.0,0.0
10.710728406906128,98726.0,0.0,0.0
10.770729303359985,98343.0,0.0,0.0
10.830704689025879,98078.0,0.0,0.0
10.889798164367676,97986.0,0.0,0.0
10.94973611831665,97469.0,0.0,0.0
11.009708881378174,97258.0,0.0,0.0
11.069747686386108,96931.0,0.0,0.0
11.129713535308838,96402.0,0.0,0.0
11.189724206924438,96186.0,0.0,0.0
11.248745679855347,95917.0,0.0,0.0
11.30875849723816,96599.0,0.0,0.0
11.36879277229309,97086.0,0.0,0.0
11.428658246994019,97291.0,0.0,0.0
11.487799882888794,97631.0,0.0,0.0
11.54774260520935,97681.0,0.0,0.0
11.607739210128784,97803.0,0.0,0.0
11.667682886123657,97833.0,0.0,0.0
11.727742910385132,98343.0,0.0,0.0
11.787710428237915,98317.0,0.0,0.0
11.846745491027832,98729.0,0.0,0.0
11.906736850738525,99093.0,0.0,0.0
11.966773748397827,98443.0,0.0,0.0
12.026739358901978,98037.0,0.0,0.0
12.086750030517578,98089.0,0.0,0.0
12.14674425125122,98433.0,0.0,0.0
12.206751346588135,98551.0,0.0,0.0
12.266722679138184,98275.0,0.0,0.0
12.326780080795288,98616.0,0.0,0.0
12.386726140975952,99069.0,0.0,0.0
12.446762561798096,98407.0,0.0,0.0
12.506685972213745,98007.0,0.0,0.0
12.566783905029297,97884.0,0.0,0.0
12.624794006347656,98602.0,0.0,0.0
12.684712886810303,99032.0,0.0,0.0
12.744769811630249,98543.0,0.0,0.0
12.80469274520874,98270.0,0.0,0.0
12.864747047424316,97854.0,0.0,0.0
12.924764394760132,96699.0,0.0,0.0
12.984731197357178,94167.0,0.0,0.0
13.04478120803833,92871.0,0.0,0.0
13.104698657989502,93333.0,0.0,0.0
13.163772821426392,95193.0,0.0,0.0
13.223726272583008,97010.0,0.0,0.0
13.283717393875122,97497.0,0.0,0.0
13.34273910522461,97116.0,0.0,0.0
13.402671575546265,96813.0,0.0,0.0
13.463736772537231,97384.0,0.0,0.0
13.52375864982605,96840.0,0.0,0.0
13.58369779586792,96621.0,0.0,0.0
13.64267086982727,97342.0,0.0,0.0
13.702747106552124,97479.0,0.0,0.0
13.762687683105469,96151.0,0.0,0.0
13.8217191696167,95894.0,0.0,0.0
13.881739139556885,97177.0,0.0,0.0
13.941719770431519,97304.0,0.0,0.0
14.001755475997925,97944.0,0.0,0.0
14.061696767807007,98453.0,0.0,0.0
14.121720314025879,98228.0,0.0,0.0
14.181743144989014,97609.0,0.0,0.0
14.241735219955444,98035.0,0.0,0.0
14.301748037338257,98494.0,0.0,0.0
14.36171293258667,98406.0,0.0,0.0
14.4217050075531,98448.0,0.0,0.0
14.481723546981812,99125.0,0.0,0.0
14.539700746536255,99237.0,0.0,0.0
14.59970474243164,98298.0,0.0,0.0
14.659722566604614,96803.0,0.0,0.0
14.719736814498901,97218.0,0.0,0.0
14.779687404632568,97888.0,0.0,0.0
14.839731693267822,98095.0,0.0,0.0
14.899648904800415,97762.0,0.0,0.0
14.959683656692505,97356.0,0.0,0.0
15.019704580307007,97119.0,0.0,0.0
15.079710245132446,97449.0,0.0,0.0
15.139700651168823,97721.0,0.0,0.0
15.199712991714478,97519.0,0.0,0.0
15.257708549499512,97754.0,0.0,0.0
15.317668914794922,97729.0,0.0,0.0
15.378680944442749,96892.0,0.0,0.0
15.43870234489441,96030.0,0.0,0.0
15.498769998550415,96562.0,0.0,0.0
15.558647155761719,98057.0,0.0,0.0
15.617661476135254,98375.0,0.0,0.0
15.677728414535522,98407.0,0.0,0.0
15.737663745880127,98377.0,0.0,0.0
15.797697067260742,98896.0,0.0,0.0
15.857736349105835,99385.0,0.0,0.0
15.917730808258057,99173.0,0.0,0.0
15.977729320526123,98189.0,0.0,0.0
16.03566813468933,96007.0,0.0,0.0
16.095653295516968,96232.0,0.0,0.0
16.155673265457153,97852.0,0.0,0.0
16.215732097625732,99409.0,0.0,0.0
16.27577781677246,99048.0,0.0,0.0
16.33576488494873,97069.0,0.0,0.0
16.395644426345825,91925.0,0.0,0.0
16.455692052841187,87672.0,0.0,0.0
16.51572060585022,90765.0,0.0,0.0
16.57569980621338,94188.0,0.0,0.0
16.635711193084717,96945.0,0.0,0.0
16.695688009262085,97527.0,0.0,0.0
16.75568985939026,98291.0,0.0,0.0
16.813677072525024,98380.0,0.0,0.0
16.873626708984375,98297.0,0.0,0.0
16.93464946746826,99341.0,0.0,0.0
16.993727207183838,99373.0,0.0,0.0
17.0537109375,98285.0,0.0,0.0
17.113697052001953,98098.0,0.0,0.0
17.17364811897278,97677.0,0.0,0.0
17.23273015022278,97774.0,0.0,0.0
17.29269576072693,98875.0,0.0,0.0
17.35271167755127,99970.0,0.0,0.0
17.412694215774536,99817.0,0.0,0.0
17.472679376602173,99692.0,0.0,0.0
17.532682418823242,100369.0,0.0,0.0
17.59268021583557,99932.0,0.0,0.0
17.652761459350586,97928.0,0.0,0.0
17.712714672088623,96156.0,0.0,0.0
17.772687673568726,97596.0,0.0,0.0
17.8326473236084,99354.0,0.0,0.0
17.892675399780273,98945.0,0.0,0.0
17.952717781066895,96976.0,0.0,0.0
18.010685205459595,97041.0,0.0,0.0
18.070722579956055,97654.0,0.0,0.0
18.13068699836731,100280.0,0.0,0.0
18.19071650505066,101868.0,0.0,0.0
18.250687837600708,102255.0,0.0,0.0
18.310731649398804,102756.0,0.0,0.0
18.3706533908844,102571.0,0.0,0.0
18.430691242218018,101860.0,0.0,0.0
18.490666151046753,101439.0,0.0,0.0
18.55067467689514,100793.0,0.0,0.0
18.610740423202515,101048.0,0.0,0.0
18.670670986175537,102638.0,0.0,0.0
18.730698823928833,102634.0,0.0,0.0
18.788663387298584,103683.0,0.0,0.0
18.84867024421692,103233.0,0.0,0.0
18.908648014068604,102831.0,0.0,0.0
18.968653440475464,102445.0,0.0,0.0
19.02966547012329,102367.0,0.0,0.0
19.08968997001648,102351.0,0.0,0.0
19.147663831710815,102992.0,0.0,0.0
19.20772075653076,104635.0,0.0,0.0
19.267656087875366,105313.0,0.0,0.0
19.328648328781128,105281.0,0.0,0.0
19.388651132583618,104188.0,0.0,0.0
19.448673725128174,99233.0,0.0,0.0
19.508668899536133,83215.0,0.0,0.0
19.56667160987854,79307.0,0.0,0.0
19.62667441368103,83092.0,0.0,0.0
19.6866557598114,86007.0,0.0,0.0
19.74667525291443,89609.0,0.0,0.0
19.806615591049194,94165.0,0.0,0.0
19.866653442382812,98168.0,0.0,0.0
19.926599502563477,99805.0,0.0,0.0
19.986689805984497,100427.0,0.0,0.0
20.04665184020996,99872.0,0.0,0.0
20.106662273406982,97513.0,0.0,0.0
20.166661500930786,94699.0,0.0,0.0
20.226648569107056,93035.0,0.0,0.0
20.284650325775146,93507.0,0.0,0.0
20.344732999801636,93822.0,0.0,0.0
20.404644012451172,93930.0,0.0,0.0
20.464667797088623,93669.0,0.0,0.0
20.525651216506958,94054.0,0.0,0.0
20.585718870162964,93697.0,0.0,0.0
20.64564323425293,95045.0,0.0,0.0
20.703599452972412,96191.0,0.0,0.0
20.763638496398926,97169.0,0.0,0.0
20.823631763458252,98947.0,0.0,0.0
20.883604764938354,100512.0,0.0,0.0
20.943660497665405,100845.0,0.0,0.0
21.003610372543335,101070.0,0.0,0.0
21.06373405456543,100824.0,0.0,0.0
21.123590230941772,100668.0,0.0,0.0
21.1836519241333,100659.0,0.0,0.0
21.243692874908447,101021.0,0.0,0.0
21.30363941192627,101211.0,0.0,0.0
21.36363959312439,101186.0,0.0,0.0
21.42368984222412,101042.0,0.0,0.0
21.48164677619934,100948.0,0.0,0.0
21.541597366333008,100787.0,0.0,0.0
21.602585554122925,100678.0,0.0,0.0
21.662590742111206,101043.0,0.0,0.0
21.722620964050293,101300.0,0.0,0.0
21.782652139663696,100887.0,0.0,0.0
21.84069299697876,101028.0,0.0,0.0
21.900660276412964,101085.0,0.0,0.0
21.960623741149902,101198.0,0.0,0.0
22.020556211471558,101379.0,0.0,0.0
22.08065438270569,101071.0,0.0,0.0
22.140610456466675,100442.0,0.0,0.0
22.200639247894287,100171.0,0.0,0.0
22.260626077651978,100361.0,0.0,0.0
22.320636987686157,100663.0,0.0,0.0
22.38066840171814,100348.0,0.0,0.0
22.440649032592773,100548.0,0.0,0.0
22.500618934631348,100590.0,0.0,0.0
22.560657739639282,100809.0,0.0,0.0
22.618671655654907,100643.0,0.0,0.0
22.678654432296753,100832.0,0.0,0.0
22.738620042800903,100835.0,0.0,0.0
22.798672199249268,100866.0,0.0,0.0
22.85867476463318,101133.0,0.0,0.0
22.91856861114502,101115.0,0.0,0.0
22.978622674942017,100949.0,0.0,0.0
23.038636684417725,100780.0,0.0,0.0
23.09862232208252,100866.0,0.0,0.0
23.1585693359375,100973.0,0.0,0.0
23.217594623565674,101003.0,0.0,0.0
23.27757430076599,101060.0,0.0,0.0
23.337573528289795,100733.0,0.0,0.0
23.397563457489014,100792.0,0.0,0.0
23.457557916641235,100745.0,0.0,0.0
23.51763653755188,100860.0,0.0,0.0
23.577614307403564,100859.0,0.0,0.0
23.637579917907715,100774.0,0.0,0.0
23.696626663208008,100823.0,0.0,0.0
23.756656885147095,100761.0,0.0,0.0
23.816606760025024,100942.0,0.0,0.0
23.876654386520386,100958.0,0.0,0.0
23.93657350540161,100825.0,0.0,0.0
23.996652603149414,101015.0,0.0,0.0
24.056658267974854,101137.0,0.0,0.0
24.114625692367554,101043.0,0.0,0.0
24.174588441848755,100980.0,0.0,0.0
24.23465061187744,100847.0,0.0,0.0
24.294638872146606,100742.0,0.0,0.0
24.355583906173706,100812.0,0.0,0.0
24.415582418441772,100880.0,0.0,0.0
24.475646495819092,100632.0,0.0,0.0
24.533609628677368,100515.0,0.0,0.0
24.59360694885254,100578.0,0.0,0.0
24.653584718704224,100590.0,0.0,0.0
24.71364426612854,100707.0,0.0,0.0
24.773622035980225,100533.0,0.0,0.0
24.833608150482178,100361.0,0.0,0.0
24.893601655960083,100302.0,0.0,0.0
24.953574180603027,100495.0,0.0,0.0
25.013614654541016,100481.0,0.0,0.0
25.073601484298706,100300.0,0.0,0.0
25.13363242149353,99903.0,0.0,0.0
25.19363760948181,99923.0,0.0,0.0
25.251569271087646,100048.0,0.0,0.0
25.312650442123413,100237.0,0.0,0.0
25.372554779052734,100542.0,0.0,0.0
25.432544469833374,100762.0,0.0,0.0
25.492635011672974,100856.0,0.0,0.0
25.55259656906128,101037.0,0.0,0.0
25.61255669593811,101100.0,0.0,0.0
25.670605897903442,100951.0,0.0,0.0
25.73063898086548,100685.0,0.0,0.0
25.79060125350952,100846.0,0.0,0.0
25.850579500198364,100890.0,0.0,0.0
25.91055154800415,100889.0,0.0,0.0
25.970574378967285,101160.0,0.0,0.0
26.030581951141357,101409.0,0.0,0.0
26.090585947036743,101566.0,0.0,0.0
26.150643587112427,101474.0,0.0,0.0
26.210590600967407,101228.0,0.0,0.0
26.270590782165527,101100.0,0.0,0.0
26.33062505722046,100819.0,0.0,0.0
26.388591289520264,100611.0,0.0,0.0
26.44858479499817,100443.0,0.0,0.0
26.508543491363525,100471.0,0.0,0.0
26.568533182144165,100511.0,0.0,0.0
26.62958574295044,100560.0,0.0,0.0
26.689578533172607,100590.0,0.0,0.0
26.749581813812256,100572.0,0.0,0.0
26.80758261680603,100429.0,0.0,0.0
26.867612838745117,100376.0,0.0,0.0
26.927571058273315,100311.0,0.0,0.0
26.987547159194946,99598.0,0.0,0.0
27.047546863555908,99469.0,0.0,0.0
27.107524156570435,99593.0,0.0,0.0
27.167524337768555,99819.0,0.0,0.0
27.226559162139893,99951.0,0.0,0.0
27.28657865524292,100051.0,0.0,0.0
27.34656071662903,100058.0,0.0,0.0
27.40652346611023,100191.0,0.0,0.0
27.466527462005615,100315.0,0.0,0.0
27.525579929351807,100274.0,0.0,0.0
27.585601806640625,100129.0,0.0,0.0
27.645562171936035,99569.0,0.0,0.0
27.705496549606323,99506.0,0.0,0.0
27.7655827999115,99494.0,0.0,0.0
27.82551908493042,99331.0,0.0,0.0
27.886589527130127,99236.0,0.0,0.0
27.944578886032104,99298.0,0.0,0.0
28.004624366760254,99434.0,0.0,0.0
28.064589262008667,99360.0,0.0,0.0
28.12450671195984,99269.0,0.0,0.0
28.18454599380493,99129.0,0.0,0.0
28.24457859992981,98518.0,0.0,0.0
28.30458164215088,98169.0,0.0,0.0
28.36455512046814,98392.0,0.0,0.0
28.42453098297119,98571.0,0.0,0.0
28.484538078308105,98676.0,0.0,0.0
28.54452633857727,98695.0,0.0,0.0
28.603519678115845,98953.0,0.0,0.0
28.663509368896484,99099.0,0.0,0.0
28.723596572875977,99230.0,0.0,0.0
28.783541440963745,99293.0,0.0,0.0
28.84364628791809,98954.0,0.0,0.0
28.90355348587036,97996.0,0.0,0.0
28.963529109954834,97955.0,0.0,0.0
29.023605585098267,98586.0,0.0,0.0
29.08150029182434,99060.0,0.0,0.0
29.141512155532837,99138.0,0.0,0.0
29.201550245285034,99155.0,0.0,0.0
29.261518478393555,99350.0,0.0,0.0
29.322550058364868,99624.0,0.0,0.0
29.38254404067993,99790.0,0.0,0.0
29.44250726699829,99973.0,0.0,0.0
29.500542163848877,99745.0,0.0,0.0
29.56050205230713,99495.0,0.0,0.0
29.621567964553833,99840.0,0.0,0.0
29.68155336380005,99757.0,0.0,0.0
29.741498947143555,99640.0,0.0,0.0
29.801480770111084,99535.0,0.0,0.0
29.860493898391724,99433.0,0.0,0.0
29.91947627067566,99452.0,0.0,0.0
29.980538606643677,99259.0,0.0,0.0
30.0396671295166,99213.0,0.0,0.0
30.100480318069458,99150.0,0.0,0.0
30.160483837127686,98418.0,0.0,0.0
30.219472885131836,97998.0,0.0,0.0
30.278489351272583,98086.0,0.0,0.0
30.338478088378906,98197.0,0.0,0.0
30.399526357650757,98384.0,0.0,0.0
30.458476305007935,98744.0,0.0,0.0
30.519494771957397,99163.0,0.0,0.0
30.578476428985596,99333.0,0.0,0.0
30.63747811317444,99507.0,0.0,0.0
30.698482513427734,99658.0,0.0,0.0
30.75845980644226,99857.0,0.0,0.0
30.817490339279175,99416.0,0.0,0.0
30.878469944000244,99425.0,0.0,0.0
30.937477111816406,99633.0,0.0,0.0
30.996528148651123,99966.0,0.0,0.0
31.05755043029785,99919.0,0.0,0.0
31.116493701934814,99901.0,0.0,0.0
31.17747211456299,99779.0,0.0,0.0
31.23654294013977,99975.0,0.0,0.0
31.297484636306763,100056.0,0.26,0.0
31.35751438140869,100072.0,0.26,0.0
31.415491104125977,100210.0,0.26,0.0
31.4764986038208,99702.0,0.26,0.0
31.53549289703369,99294.0,0.26,0.0
31.596540689468384,99385.0,0.26,0.0
31.655469179153442,99393.0,0.26,0.0
31.716490983963013,99168.0,0.26,0.0
31.77547836303711,99089.0,0.26,0.0
31.834548234939575,99145.0,0.26,0.0
31.89449143409729,99210.0,0.26,0.0
31.95550012588501,99295.0,0.26,0.0
32.014527797698975,99392.0,0.26,0.0
32.074519872665405,99351.0,0.26,0.0
32.134554386138916,98875.0,0.26,0.0
32.19451928138733,98869.0,0.26,0.0
32.254526138305664,98835.0,0.26,0.0
32.314443826675415,98516.0,0.26,0.0
32.37452793121338,98648.0,0.26,0.0
32.434486865997314,98477.0,0.26,0.0
32.494529724121094,99200.0,0.26,0.0
32.552531480789185,99319.0,0.26,0.0
32.612526655197144,99507.0,0.26,0.0
32.67244601249695,99346.0,0.26,0.0
32.732518434524536,99341.0,0.26,0.0
32.79245662689209,99075.0,0.26,0.0
32.85247492790222,98915.0,0.26,0.0
32.9124493598938,98722.0,0.26,0.0
32.9724497795105,98750.0,0.26,0.0
33.03244590759277,99045.0,0.26,0.0
33.09251093864441,98847.0,0.26,0.0
33.15249061584473,98934.0,0.26,0.0
33.21248245239258,99120.0,0.26,0.0
33.27243685722351,99270.0,0.26,0.0
33.33053135871887,99422.0,0.26,0.0
33.39047312736511,99629.0,0.26,0.0
33.45043587684631,99421.0,0.26,0.0
33.510472774505615,99400.0,0.26,0.0
33.57048010826111,99638.0,0.26,0.0
33.63048076629639,99753.0,0.26,0.0
33.69047784805298,99852.0,0.26,0.0
33.750468015670776,99785.0,0.26,0.0
33.81046676635742,99742.0,0.26,0.0
33.86948370933533,99630.0,0.26,0.0
33.92946124076843,99585.0,0.26,0.0
33.98944568634033,99532.0,0.26,0.0
34.05041170120239,99519.0,0.26,0.0
34.10847330093384,99298.0,0.26,0.0
34.16941213607788,99265.0,0.26,0.0
34.22943711280823,99283.0,0.26,0.0
34.28842067718506,99210.0,0.26,0.0
34.34950113296509,99201.0,0.26,0.0
34.408506631851196,99065.0,0.26,0.0
34.46842002868652,99207.0,0.26,0.0
34.52741575241089,99321.0,0.26,0.0
34.587443113327026,99376.0,0.26,0.0
34.648433446884155,99410.0,0.26,0.0
34.70743179321289,99513.0,0.26,0.0
34.76843190193176,99062.0,0.26,0.0
34.827430963516235,99026.0,0.26,0.0
34.88642168045044,99308.0,0.26,0.0
34.94744157791138,99311.0,0.26,0.0
35.00644111633301,99452.0,0.26,0.0
35.067442417144775,99617.0,0.26,0.0
35.126434564590454,99740.0,0.26,0.0
35.18743824958801,99831.0,0.26,0.0
35.24644947052002,99936.0,0.26,0.0
35.3054301738739,99963.0,0.26,0.0
35.36644172668457,100065.0,0.26,0.0
35.42645978927612,100009.0,14.53,0.0
35.48645567893982,99770.0,14.53,0.0
35.54648447036743,99894.0,14.53,0.0
35.60445284843445,99976.0,14.53,0.0
35.66451930999756,100071.0,14.53,0.0
35.72446084022522,99910.0,14.53,0.0
35.78447484970093,99599.0,14.53,0.0
35.84448218345642,99463.0,14.53,0.0
35.90444278717041,99480.0,14.53,0.0
35.96449017524719,99586.0,14.53,0.0
36.024561166763306,99561.0,14.53,0.0
36.08444929122925,99216.0,14.53,0.0
36.144519567489624,98946.0,14.53,0.0
36.20453405380249,99056.0,14.53,0.0
36.26447415351868,99042.0,14.53,0.0
36.32445216178894,99233.0,14.53,0.0
36.38243532180786,99235.0,14.53,0.0
36.44244027137756,99070.0,14.53,0.0
36.50244212150574,99498.0,14.53,0.0
36.56244921684265,99280.0,14.53,0.0
36.6224627494812,99674.0,14.53,0.0
36.68247199058533,99773.0,14.53,0.0
36.74244570732117,99487.0,14.53,0.0
36.802438259124756,99583.0,14.53,0.0
36.862443923950195,99618.0,14.53,0.0
36.922497272491455,99682.0,14.53,0.0
36.98244571685791,99725.0,14.53,0.0
37.042436361312866,99709.0,14.53,0.0
37.102447271347046,99672.0,14.53,0.0
37.16045570373535,99801.0,14.53,0.0
37.22046899795532,99763.0,14.53,0.0
37.28046989440918,99775.0,14.53,0.0
37.34044885635376,99937.0,31.35,30.0
37.40046954154968,99928.0,31.35,30.0
37.46048069000244,99761.0,31.35,30.0
37.520472049713135,99862.0,31.35,30.0
37.580482006073,99888.0,31.35,30.0
37.64046549797058,99876.0,31.35,30.0
37.70047998428345,99783.0,31.35,30.0
37.760502576828,99687.0,31.35,30.0
37.82045030593872,99637.0,31.35,30.0
37.878474950790405,99536.0,31.35,30.0
37.938477993011475,99562.0,31.35,30.0
37.99844312667847,99572.0,31.35,30.0
38.05847668647766,99198.0,31.35,30.0
38.1185028553009,98861.0,31.35,30.0
38.17845439910889,98843.0,31.35,30.0
38.23845648765564,98867.0,31.35,30.0
38.29845833778381,98845.0,31.35,30.0
38.35847091674805,98845.0,31.35,30.0
38.418452739715576,98929.0,31.35,30.0
38.47844338417053,99193.0,31.35,30.0
38.538482666015625,99389.0,31.35,30.0
38.598443269729614,99314.0,31.35,30.0
38.656468868255615,99286.0,31.35,30.0
38.71645402908325,99266.0,31.35,30.0
38.776482820510864,99030.0,31.35,30.0
38.836467266082764,98921.0,31.35,30.0
38.89646315574646,98966.0,31.35,30.0
38.95647168159485,99235.0,31.35,30.0
39.016496419906616,99330.0,31.35,30.0
39.07645916938782,99563.0,31.35,30.0
39.136486768722534,99735.0,31.35,30.0
39.196467876434326,99986.0,31.35,30.0
39.25643491744995,100068.0,31.35,30.0
39.31644606590271,100105.0,31.35,30.0
39.37646770477295,100036.0,31.35,30.0
39.43443489074707,99892.0,31.35,30.0
39.49445390701294,99818.0,31.35,30.0
39.554420709609985,99487.0,27.1,30.0
39.61447191238403,99258.0,27.1,30.0
39.67446517944336,99218.0,27.1,30.0
39.734469175338745,99191.0,27.1,30.0
39.79446983337402,99237.0,27.1,30.0
39.854453325271606,99147.0,27.1,30.0
39.91446495056152,99287.0,27.1,30.0
39.97449851036072,99356.0,27.1,30.0
40.034475326538086,99101.0,27.1,30.0
40.09444499015808,98862.0,27.1,30.0
40.15446853637695,99102.0,27.1,30.0
40.21245074272156,99217.0,27.1,30.0
40.2724666595459,99466.0,27.1,30.0
40.33240294456482,100025.0,27.1,30.0
40.39245390892029,100064.0,27.1,30.0
40.452476501464844,100154.0,27.1,30.0
40.512473821640015,100209.0,27.1,30.0
40.57247018814087,99962.0,27.1,30.0
40.63245487213135,100004.0,27.1,30.0
40.69245409965515,99796.0,27.1,30.0
40.75244331359863,99603.0,27.1,30.0
40.81242227554321,99762.0,47.69,36.0
40.87243127822876,99916.0,47.69,36.0
40.930450677871704,99864.0,47.69,36.0
40.990498781204224,99757.0,47.69,36.0
41.05047416687012,99841.0,47.69,36.0
41.110488176345825,99911.0,47.69,36.0
41.17044806480408,100007.0,47.69,36.0
41.23040819168091,99920.0,47.69,36.0
41.290417432785034,99876.0,47.69,36.0
41.35044074058533,99465.0,47.69,36.0
41.41044354438782,99257.0,47.69,36.0
41.470388412475586,99409.0,47.69,36.0
41.53057050704956,99419.0,47.69,36.0
41.59051561355591,99520.0,47.69,36.0
41.65050673484802,99583.0,47.69,36.0
41.70846438407898,99633.0,47.69,36.0
41.76844644546509,99850.0,47.69,36.0
41.82839560508728,99855.0,47.69,36.0
41.88838720321655,99887.0,47.69,36.0
41.948413610458374,99882.0,47.69,36.0
42.00841546058655,99787.0,47.69,36.0
42.068461179733276,99385.0,47.69,36.0
42.128382444381714,99311.0,47.69,36.0
42.18845272064209,99597.0,47.69,36.0
42.2484393119812,99607.0,47.69,36.0
42.308393239974976,99597.0,47.69,36.0
42.36839246749878,99512.0,47.69,36.0
42.42838764190674,99341.0,47.69,36.0
42.48647904396057,99136.0,47.69,36.0
42.546448945999146,99012.0,47.69,36.0
42.6064248085022,98889.0,47.69,36.0
42.66643929481506,99016.0,47.69,36.0
42.726354122161865,98940.0,47.69,36.0
42.78645157814026,98899.0,47.69,36.0
42.846357583999634,99201.0,47.69,36.0
42.90638995170593,99301.0,47.69,36.0
42.9664261341095,99324.0,47.69,36.0
43.026474475860596,99354.0,47.69,36.0
43.08639311790466,99442.0,47.69,36.0
43.14647197723389,99627.0,47.69,36.0
43.20644283294678,99681.0,47.69,36.0
43.264384031295776,99674.0,47.69,36.0
43.32443332672119,99807.0,47.69,36.0
43.38437342643738,99684.0,47.69,36.0
43.44435787200928,99371.0,47.69,36.0
43.50442910194397,99330.0,47.69,36.0
43.564452171325684,99405.0,47.69,36.0
43.62444090843201,99531.0,47.69,36.0
43.68449115753174,99398.0,47.69,36.0
43.744500398635864,99290.0,47.69,36.0
43.80434513092041,99246.0,20.05,31.0
43.86443567276001,99467.0,20.05,31.0
43.92445516586304,99596.0,20.05,31.0
43.984432220458984,99743.0,20.05,31.0
44.04237103462219,99885.0,20.05,31.0
44.102351665496826,99513.0,20.05,31.0
44.1624391078949,99583.0,20.05,31.0
44.22245407104492,99822.0,20.05,31.0
44.28243923187256,100001.0,20.05,31.0
44.342453956604004,100092.0,20.05,31.0
44.40239357948303,100127.0,20.05,31.0
44.462369203567505,100229.0,20.05,31.0
44.52232789993286,100463.0,20.05,31.0
44.582356691360474,100539.0,20.05,31.0
44.64237856864929,100595.0,20.05,31.0
44.70245885848999,100593.0,20.05,31.0
44.76236939430237,100488.0,20.05,31.0
44.82038974761963,100144.0,20.05,31.0
44.8803014755249,100215.0,20.05,31.0
44.94044804573059,100152.0,20.05,31.0
45.00039029121399,100048.0,20.05,31.0
45.06038546562195,99988.0,20.05,31.0
45.120381593704224,99933.0,20.05,31.0
45.18037748336792,99863.0,20.05,31.0
45.24032425880432,99987.0,20.05,31.0
45.300352573394775,99924.0,20.05,31.0
45.360371589660645,99960.0,20.05,31.0
45.42038035392761,99653.0,20.05,31.0
45.48033428192139,98857.0,20.05,31.0
45.54035043716431,98833.0,20.05,31.0
45.598355293273926,98777.0,20.05,31.0
45.65831708908081,99689.0,20.05,31.0
45.71832203865051,100016.0,20.05,31.0
45.778454303741455,100357.0,20.05,31.0
45.83845353126526,100636.0,20.05,31.0
45.898366928100586,100501.0,20.05,31.0
45.95838403701782,100326.0,20.05,31.0
46.018372535705566,100271.0,20.05,31.0
46.078463315963745,100433.0,20.05,31.0
46.13835334777832,100321.0,20.05,31.0
46.1983540058136,100168.0,20.05,31.0
46.25838303565979,99177.0,20.05,31.0
46.31836533546448,98623.0,20.05,31.0
46.37646126747131,98132.0,23.33,29.0
46.436320304870605,98856.0,23.33,29.0
46.49632406234741,99100.0,23.33,29.0
46.556326389312744,99237.0,23.33,29.0
46.616368770599365,99331.0,23.33,29.0
46.676331520080566,99073.0,23.33,29.0
46.73636841773987,98555.0,23.33,29.0
46.79633092880249,98346.0,23.33,29.0
46.8563756942749,98099.0,23.33,29.0
46.916372776031494,98366.0,23.33,29.0
46.976359844207764,98221.0,23.33,29.0
47.03637742996216,98609.0,23.33,29.0
47.09437584877014,98650.0,23.33,29.0
47.154356479644775,99195.0,23.33,29.0
47.21436429023743,99510.0,23.33,29.0
47.27435374259949,99521.0,23.33,29.0
47.334375619888306,99878.0,23.33,29.0
47.39435338973999,99943.0,23.33,29.0
47.45435285568237,99930.0,23.33,29.0
47.51436924934387,100157.0,23.33,29.0
47.57437205314636,100565.0,23.33,29.0
47.63434648513794,100524.0,23.33,29.0
47.69435477256775,100795.0,23.33,29.0
47.75439167022705,101075.0,23.33,29.0
47.81236290931702,101033.0,23.33,29.0
47.872337341308594,100838.0,23.33,29.0
47.93233823776245,100965.0,23.33,29.0
47.99234104156494,100723.0,23.33,29.0
48.052308082580566,100482.0,23.33,29.0
48.1123263835907,100259.0,23.33,29.0
48.17235231399536,100105.0,23.33,29.0
48.23232173919678,99916.0,23.33,29.0
48.292362213134766,100060.0,23.33,29.0
48.35234975814819,100144.0,23.33,29.0
48.412394285202026,99398.0,23.33,29.0
48.47233533859253,98784.0,23.33,29.0
48.53234577178955,99270.0,23.33,29.0
48.590306520462036,99240.0,23.33,29.0
48.650368452072144,100172.0,23.33,29.0
48.71032524108887,100017.0,23.33,29.0
48.77035665512085,100108.0,23.33,29.0
48.83031105995178,99495.0,23.33,29.0
48.890374422073364,96293.0,23.33,29.0
48.95036578178406,96309.0,23.33,29.0
49.010310888290405,99808.0,23.33,29.0
49.070337533950806,98358.0,23.33,29.0
49.13033485412598,97043.0,23.33,29.0
49.19032096862793,97981.0,23.33,29.0
49.25034952163696,96825.0,23.33,29.0
49.31032681465149,95856.0,23.33,29.0
49.36833834648132,97847.0,23.33,29.0
49.428311824798584,98249.0,23.33,29.0
49.48829436302185,96660.0,23.33,29.0
49.54834842681885,97565.0,23.33,29.0
49.608328104019165,98560.0,23.33,29.0
49.66833209991455,97707.0,23.33,29.0
49.72833013534546,97480.0,23.33,29.0
49.78832173347473,99301.0,23.33,29.0
49.848302125930786,100079.0,23.33,29.0
49.90837502479553,100128.0,23.33,29.0
49.968321800231934,100637.0,23.33,29.0
50.02834343910217,100937.0,23.33,29.0
50.088335037231445,100406.0,23.33,29.0
50.146336793899536,100453.0,23.33,29.0
50.206337451934814,99931.0,23.33,29.0
50.26632285118103,98601.0,23.33,29.0
50.326415061950684,98977.0,23.33,29.0
50.38632416725159,99172.0,23.33,29.0
50.44634485244751,98878.0,23.33,29.0
50.50630569458008,99321.0,23.33,29.0
50.56633377075195,99368.0,23.33,29.0
50.6262788772583,98544.0,23.33,29.0
50.68632793426514,99390.0,23.33,29.0
50.74631857872009,100567.0,23.33,29.0
50.80632138252258,100155.0,23.33,29.0
50.86429023742676,99741.0,23.33,29.0
50.9243323802948,99832.0,23.33,29.0
50.98430800437927,99461.0,23.33,29.0
51.04430532455444,99804.0,23.33,29.0
51.10430979728699,100491.0,23.33,29.0
51.1643168926239,100562.0,23.33,29.0
51.22433519363403,100354.0,23.33,29.0
51.284308195114136,99705.0,23.33,29.0
51.34434247016907,99140.0,23.33,29.0
51.40440011024475,99186.0,23.33,29.0
51.46426796913147,100034.0,23.33,29.0
51.524298429489136,100474.0,23.33,29.0
51.58430242538452,100384.0,23.33,29.0
51.64226841926575,100286.0,23.33,29.0
51.702322006225586,100263.0,23.33,29.0
51.76230978965759,100198.0,23.33,29.0
51.82233953475952,100236.0,23.33,29.0
51.88232636451721,100940.0,23.33,29.0
51.942312479019165,101107.0,23.33,29.0
52.0023090839386,100613.0,23.33,29.0
52.06229853630066,100240.0,23.33,29.0
52.12226963043213,100101.0,23.33,29.0
52.182307958602905,100190.0,23.33,29.0
52.24226784706116,100332.0,23.33,29.0
52.302303314208984,100228.0,23.33,29.0
52.36228537559509,100182.0,23.33,29.0
52.420300006866455,100476.0,23.33,29.0
52.48028206825256,101191.0,23.33,29.0
52.54030895233154,101681.0,23.33,29.0
52.60029315948486,102054.0,23.33,29.0
52.660325050354004,102134.0,23.33,29.0
52.72023010253906,101999.0,23.33,29.0
52.78030347824097,101999.0,23.33,29.0
52.84033155441284,102275.0,23.33,29.0
52.90033531188965,101690.0,23.33,29.0
52.960304975509644,101174.0,23.33,29.0
53.020323038101196,101387.0,23.33,29.0
53.08027648925781,101282.0,23.33,29.0
53.14025592803955,101273.0,23.33,29.0
53.1982855796814,101364.0,23.33,29.0
53.2583110332489,101505.0,23.33,29.0
53.318437814712524,101587.0,23.33,29.0
53.37832427024841,101653.0,23.33,29.0
53.43831181526184,101792.0,23.33,29.0
53.49831461906433,101469.0,23.33,29.0
53.55830931663513,100237.0,23.33,29.0
53.61834383010864,100180.0,23.33,29.0
53.678322553634644,100896.0,23.33,29.0
53.73831129074097,101298.0,23.33,29.0
53.79829454421997,101331.0,23.33,29.0
53.8583288192749,101706.0,23.33,29.0
53.916332960128784,101606.0,23.33,29.0
53.97630596160889,101557.0,23.33,29.0
54.03631329536438,101569.0,23.33,29.0
54.09625005722046,101567.0,23.33,29.0
54.156307220458984,101023.0,23.33,29.0
54.21630239486694,99962.0,23.33,29.0
54.2763135433197,99953.0,23.33,29.0
54.33626055717468,100366.0,23.33,29.0
54.39632058143616,100577.0,23.33,29.0
54.45632982254028,100624.0,23.33,29.0
54.516250133514404,100415.0,23.33,29.0
54.576273679733276,100557.0,23.33,29.0
54.63622689247131,100730.0,23.33,29.0
54.69426393508911,100686.0,23.33,29.0
54.75433611869812,100771.0,23.33,29.0
54.81427025794983,100730.0,23.33,29.0
54.87428402900696,99679.0,23.33,29.0
54.934309005737305,99346.0,23.33,29.0
54.99427676200867,99722.0,23.33,29.0
55.05421257019043,100032.0,23.33,29.0
55.11425447463989,100269.0,23.33,29.0
55.17423748970032,100406.0,23.33,29.0
55.23427724838257,100508.0,23.33,29.0
55.29423189163208,100494.0,23.33,29.0
55.354315519332886,101276.0,23.33,29.0
55.41428256034851,101447.0,23.33,29.0
55.472227573394775,101758.0,23.33,29.0
55.53227496147156,101651.0,23.33,29.0
55.592267990112305,100901.0,23.33,29.0
55.65231680870056,100952.0,23.33,29.0
55.71222734451294,101087.0,23.33,29.0
55.77226972579956,101016.0,23.33,29.0
55.83221960067749,100696.0,23.33,29.0
55.89225959777832,100558.0,23.33,29.0
55.95225667953491,100384.0,23.33,29.0
56.01225304603577,99855.0,23.33,29.0
56.07225012779236,99661.0,23.33,29.0
56.13234829902649,99790.0,23.33,29.0
56.192254066467285,99609.0,23.33,29.0
56.25024175643921,99028.0,23.33,29.0
56.31026792526245,99175.0,23.33,29.0
56.370274782180786,99509.0,23.33,29.0
56.43026256561279,100031.0,23.33,29.0
56.490251779556274,100080.0,23.33,29.0
56.550304889678955,99905.0,23.33,29.0
56.61029577255249,99924.0,23.33,29.0
56.67023730278015,99901.0,23.33,29.0
56.73020839691162,99843.0,23.33,29.0
56.79029107093811,99698.0,23.33,29.0
56.850247383117676,99543.0,23.33,29.0
56.910335302352905,98612.0,23.33,29.0
56.97025108337402,97307.0,23.33,29.0
57.02827858924866,96853.0,23.33,29.0
57.088202714920044,97068.0,23.33,29.0
57.14823269844055,96857.0,23.33,29.0
57.2082405090332,97132.0,23.33,29.0
57.268245697021484,97890.0,23.33,29.0
57.32820391654968,99317.0,23.33,29.0
57.38830256462097,99988.0,23.33,29.0
57.44827699661255,99708.0,23.33,29.0
57.508294105529785,99427.0,23.33,29.0
57.568222522735596,98257.0,23.33,29.0
57.6282901763916,96556.0,23.33,29.0
57.68827509880066,96347.0,23.33,29.0
57.74622344970703,94980.0,23.33,29.0
57.80630397796631,93782.0,23.33,29.0
57.86625671386719,93094.0,23.33,29.0
57.92625188827515,93278.0,23.33,29.0
57.9862265586853,93728.0,23.33,29.0
58.046279430389404,93689.0,23.33,29.0
58.10630011558533,93346.0,23.33,29.0
58.16622304916382,92862.0,23.33,29.0
58.226274728775024,91576.0,23.33,29.0
58.28622770309448,90772.0,23.33,29.0
58.346219301223755,91890.0,23.33,29.0
58.4062602519989,90119.0,23.33,29.0
58.46626281738281,88771.0,23.33,29.0
58.52420997619629,88416.0,23.33,29.0
58.58418369293213,89727.0,23.33,29.0
58.644219160079956,91220.0,23.33,29.0
58.704174518585205,93335.0,23.33,29.0
58.76423907279968,94565.0,23.33,29.0
58.824188232421875,95259.0,23.33,29.0
58.884244441986084,96735.0,23.33,29.0
58.94418740272522,98130.0,23.33,29.0
59.00422239303589,98655.0,23.33,29.0
59.06428146362305,98875.0,23.33,29.0
59.12421703338623,98825.0,23.33,29.0
59.18423128128052,98575.0,23.33,29.0
59.24420356750488,98350.0,23.33,29.0
59.30225324630737,97328.0,23.33,29.0
59.36217927932739,96202.0,23.33,29.0
59.422192335128784,96343.0,23.33,29.0
59.4821879863739,97027.0,23.33,29.0
59.542261838912964,97486.0,23.33,29.0
59.60222864151001,97764.0,23.33,29.0
59.66223692893982,97786.0,23.33,29.0
59.722222566604614,97770.0,23.33,29.0
59.78221774101257,98005.0,23.33,29.0
59.84219169616699,98155.0,23.33,29.0
59.902231216430664,98206.0,23.33,29.0
59.96218514442444,98257.0,23.33,29.0
60.02021861076355,98295.0,23.33,29.0
60.08023118972778,98352.0,23.33,29.0
60.14020562171936,98525.0,23.33,29.0
60.20020818710327,98358.0,23.33,29.0
60.26026964187622,97703.0,23.33,29.0
60.32024168968201,97575.0,23.33,29.0
60.380228996276855,97974.0,23.33,29.0
60.44019937515259,98306.0,23.33,29.0
60.50018930435181,98399.0,23.33,29.0
60.56021499633789,98210.0,23.33,29.0
60.62015914916992,97885.0,23.33,29.0
60.68025803565979,97492.0,23.33,29.0
60.74022030830383,97741.0,23.33,29.0
60.79819393157959,97689.0,23.33,29.0
60.85819935798645,98107.0,23.33,29.0
60.91813588142395,98400.0,23.33,29.0
60.9782497882843,98207.0,23.33,29.0
61.03814888000488,98529.0,23.33,29.0
61.098185777664185,98046.0,23.33,29.0
61.15818738937378,96679.0,23.33,29.0
61.218212842941284,96350.0,23.33,29.0
61.278170347213745,96408.0,23.33,29.0
61.338202238082886,96547.0,23.33,29.0
61.398178577423096,96604.0,23.33,29.0
61.45823383331299,96788.0,23.33,29.0
61.51822876930237,96929.0,23.33,29.0
61.57616686820984,97219.0,23.33,29.0
61.63619685173035,97467.0,23.33,29.0
61.69615173339844,97633.0,23.33,29.0
61.756192445755005,97697.0,23.33,29.0
61.81619334220886,98034.0,23.33,29.0
61.8762047290802,98289.0,23.33,29.0
61.936238050460815,98216.0,23.33,29.0
61.996203660964966,97572.0,23.33,29.0
62.056212186813354,97960.0,23.33,29.0
62.1161949634552,98480.0,23.33,29.0
62.176172971725464,98683.0,23.33,29.0
62.23618149757385,98681.0,23.33,29.0
62.29617929458618,98323.0,23.33,29.0
62.35413455963135,98133.0,23.33,29.0
62.41418790817261,98197.0,23.33,29.0
62.47412347793579,98567.0,23.33,29.0
62.53421068191528,98731.0,23.33,29.0
62.59417462348938,99064.0,23.33,29.0
62.65415549278259,99134.0,23.33,29.0
62.71418023109436,99064.0,23.33,29.0
62.77422118186951,99034.0,23.33,29.0
62.834195137023926,98842.0,23.33,29.0
62.89418625831604,98667.0,23.33,29.0
62.95419979095459,98941.0,23.33,29.0
63.0141978263855,98992.0,23.33,29.0
63.07410788536072,99148.0,23.33,29.0
63.13213753700256,99073.0,23.33,29.0
63.19214868545532,98986.0,23.33,29.0
63.25220441818237,99132.0,23.33,29.0
63.31219267845154,99763.0,23.33,29.0
63.37213635444641,99943.0,23.33,29.0
63.43215799331665,100028.0,23.33,29.0
63.49211382865906,100246.0,23.33,29.0
63.5521445274353,100527.0,23.33,29.0
63.6121883392334,100506.0,23.33,29.0
63.672184467315674,100474.0,23.33,29.0
63.73218894004822,100588.0,23.33,29.0
63.79222273826599,100753.0,23.33,29.0
63.85217499732971,100782.0,23.33,29.0
63.910202741622925,100838.0,23.33,29.0
63.97014832496643,100859.0,23.33,29.0
64.03014850616455,100817.0,23.33,29.0
64.09013080596924,100846.0,23.33,29.0
64.15013790130615,100913.0,23.33,29.0
64.21022367477417,100865.0,23.33,29.0
64.27013182640076,100885.0,23.33,29.0
64.33018207550049,100926.0,23.33,29.0
64.39011240005493,100810.0,23.33,29.0
64.4501724243164,100663.0,23.33,29.0
64.51016283035278,100697.0,23.33,29.0
64.57018542289734,100851.0,23.33,29.0
64.63014459609985,100922.0,23.33,29.0
64.68817615509033,100985.0,23.33,29.0
64.74815154075623,100994.0,23.33,29.0
64.80817675590515,100996.0,23.33,29.0
64.86812615394592,101127.0,23.33,29.0
64.9281256198883,101193.0,23.33,29.0
64.98819589614868,101281.0,23.33,29.0
65.04813838005066,101295.0,23.33,29.0
65.10812211036682,101272.0,23.33,29.0
65.16812419891357,101246.0,23.33,29.0
65.22814893722534,101163.0,23.33,29.0
65.28814363479614,101077.0,23.33,29.0
65.34811210632324,101048.0,23.33,29.0
65.40816187858582,101023.0,23.33,29.0
65.46616077423096,101166.0,23.33,29.0
65.52616500854492,101232.0,23.33,29.0
65.58620047569275,101021.0,23.33,29.0
65.64610743522644,100923.0,23.33,29.0
65.70612645149231,100942.0,23.33,29.0
65.7661521434784,100881.0,23.33,29.0
65.82612633705139,100703.0,23.33,29.0
65.8861677646637,100677.0,23.33,29.0
65.94612050056458,100708.0,23.33,29.0
66.00611066818237,100766.0,23.33,29.0
66.06615328788757,100573.0,23.33,29.0
66.12615704536438,100596.0,23.33,29.0
66.18412971496582,100527.0,23.33,29.0
66.24416017532349,100476.0,23.33,29.0
66.30411958694458,100459.0,23.33,29.0
66.36413192749023,100480.0,23.33,29.0
66.42413830757141,100472.0,23.33,29.0
66.48417329788208,100190.0,23.33,29.0
66.54411315917969,99962.0,23.33,29.0
66.60413789749146,100114.0,23.33,29.0
66.66410613059998,100110.0,23.33,29.0
66.72413659095764,100194.0,23.33,29.0
66.78413510322571,100195.0,23.33,29.0
66.84414339065552,99982.0,23.33,29.0
66.90407013893127,99642.0,23.33,29.0
66.96212959289551,99956.0,23.33,29.0
67.02207589149475,100133.0,23.33,29.0
67.08209705352783,100059.0,23.33,29.0
67.14214634895325,100009.0,23.33,29.0
67.20213413238525,100111.0,23.33,29.0
67.26214456558228,100105.0,23.33,29.0
67.32214689254761,99984.0,23.33,29.0
67.38218474388123,99922.0,23.33,29.0
67.44214797019958,99955.0,23.33,29.0
67.50213027000427,99624.0,23.33,29.0
67.56212830543518,99480.0,23.33,29.0
67.62209987640381,99669.0,23.33,29.0
67.68211770057678,99720.0,23.33,29.0
67.74009108543396,99730.0,23.33,29.0
67.80017042160034,99629.0,23.33,29.0
67.86015009880066,99365.0,23.33,29.0
67.92011332511902,99164.0,23.33,29.0
67.98011755943298,99173.0,23.33,29.0
68.04013442993164,99222.0,23.33,29.0
68.10013771057129,99163.0,23.33,29.0
68.16015338897705,99005.0,23.33,29.0
68.22013831138611,98591.0,23.33,29.0
68.28015351295471,96931.0,23.33,29.0
68.34010481834412,93058.0,23.33,29.0
68.40008807182312,89611.0,23.33,29.0
68.46007680892944,88111.0,23.33,29.0
68.51811742782593,87482.0,23.33,29.0
68.57811737060547,86542.0,23.33,29.0
68.63812112808228,86009.0,23.33,29.0
68.69812750816345,86222.0,23.33,29.0
68.75811862945557,87422.0,23.33,29.0
68.81811094284058,89877.0,23.33,29.0
68.8781201839447,91366.0,23.33,29.0
68.93812704086304,93192.0,23.33,29.0
68.99811911582947,95182.0,23.33,29.0
69.05810379981995,96508.0,23.33,29.0
69.11812376976013,97145.0,23.33,29.0
69.17810010910034,97009.0,23.33,29.0
69.23810386657715,97449.0,23.33,29.0
69.29606580734253,97857.0,23.33,29.0
69.35609221458435,97957.0,23.33,29.0
69.41604852676392,98088.0,23.33,29.0
69.4761130809784,98175.0,23.33,29.0
69.53609871864319,98084.0,23.33,29.0
69.59609317779541,97770.0,23.33,29.0
69.65609550476074,96720.0,23.33,29.0
69.71610021591187,96039.0,23.33,29.0
69.77609133720398,95358.0,23.33,29.0
69.8360984325409,94931.0,23.33,29.0
69.89603447914124,94636.0,23.33,29.0
69.95615243911743,96288.0,23.33,29.0
70.01611328125,98289.0,23.33,29.0
70.07410287857056,99184.0,23.33,29.0
70.13404393196106,99592.0,23.33,29.0
70.19405961036682,99877.0,23.33,29.0
70.25410747528076,100115.0,23.33,29.0
70.3140480518341,99497.0,23.33,29.0
70.3741397857666,97627.0,23.33,29.0
70.4340455532074,97231.0,23.33,29.0
70.49408149719238,97017.0,23.33,29.0
70.55409622192383,96554.0,23.33,29.0
70.6141586303711,97072.0,23.33,29.0
70.67409944534302,98113.0,23.33,29.0
70.73405456542969,99137.0,23.33,29.0
70.79213571548462,99556.0,23.33,29.0
70.85209059715271,99047.0,23.33,29.0
70.91206502914429,98421.0,23.33,29.0
70.97210645675659,98217.0,23.33,29.0
71.03211307525635,97848.0,23.33,29.0
71.09208345413208,97922.0,23.33,29.0
71.15210700035095,98794.0,23.33,29.0
71.21206402778625,99878.0,23.33,29.0
71.27212762832642,100564.0,23.33,29.0
71.33210158348083,100912.0,23.33,29.0
71.39206910133362,100988.0,23.33,29.0
71.45207071304321,100665.0,23.33,29.0
71.51206159591675,99982.0,23.33,29.0
71.57013750076294,98755.0,23.33,29.0
71.63007473945618,98396.0,23.33,29.0
71.69012212753296,98579.0,23.33,29.0
71.75011706352234,98539.0,23.33,29.0
71.81008124351501,98529.0,23.33,29.0
71.87013912200928,98865.0,23.33,29.0
71.93007636070251,99317.0,23.33,29.0
71.99007368087769,100046.0,23.33,29.0
72.0501070022583,100586.0,23.33,29.0
72.11005926132202,100602.0,23.33,29.0
72.17010426521301,100362.0,23.33,29.0
72.23003101348877,99995.0,23.33,29.0
72.29006123542786,99406.0,23.33,29.0
72.34803557395935,98969.0,23.33,29.0
72.40808081626892,99218.0,23.33,29.0
72.46807885169983,99944.0,23.33,29.0
72.52810025215149,99904.0,23.33,29.0
72.58806729316711,98549.0,23.33,29.0
72.64809799194336,98190.0,23.33,29.0
72.70810103416443,99007.0,23.33,29.0
72.76808309555054,99637.0,23.33,29.0
72.82807636260986,99226.0,23.33,29.0
72.88807845115662,99238.0,23.33,29.0
72.9480767250061,99561.0,23.33,29.0
73.00807595252991,99861.0,23.33,29.0
73.0680615901947,99121.0,23.33,29.0
73.1261157989502,99038.0,23.33,29.0
73.18612790107727,99132.0,23.33,29.0
73.24607276916504,99038.0,23.33,29.0
73.30611872673035,98840.0,23.33,29.0
73.3660523891449,98758.0,23.33,29.0
73.42607283592224,97479.0,23.33,29.0
73.48606967926025,98165.0,23.33,29.0
73.54607105255127,98998.0,23.33,29.0
73.60606217384338,98517.0,23.33,29.0
73.66603755950928,97303.0,23.33,29.0
73.72602772712708,98396.0,23.33,29.0
73.78610706329346,99172.0,23.33,29.0
73.8440523147583,98112.0,23.33,29.0
73.90403962135315,97971.0,23.33,29.0
73.96402025222778,99071.0,23.33,29.0
74.02401518821716,98698.0,23.33,29.0
74.08401989936829,98245.0,23.33,29.0
74.14402055740356,98257.0,23.33,29.0
74.2040445804596,98464.0,23.33,29.0
74.2640335559845,99021.0,23.33,29.0
74.32401728630066,98566.0,23.33,29.0
74.38403034210205,97422.0,23.33,29.0
74.4440267086029,95384.0,23.33,29.0
74.50403904914856,94065.0,23.33,29.0
74.5640070438385,92740.0,23.33,29.0
74.62204265594482,94545.0,23.33,29.0
74.68206882476807,97139.0,23.33,29.0
74.74207997322083,97194.0,23.33,29.0
74.80205202102661,94930.0,23.33,29.0
74.86206030845642,94764.0,23.33,29.0
74.92205023765564,94919.0,23.33,29.0
74.9820773601532,96071.0,23.33,29.0
75.04204773902893,96790.0,23.33,29.0
75.1020896434784,97418.0,23.33,29.0
75.16210842132568,98113.0,23.33,29.0
75.22206997871399,97217.0,23.33,29.0
75.28201341629028,95795.0,23.33,29.0
75.34204530715942,94478.0,23.33,29.0
75.40000987052917,93688.0,23.33,29.0
75.46002984046936,94405.0,23.33,29.0
75.52002882957458,95698.0,23.33,29.0
75.58022332191467,97010.0,23.33,29.0
75.64003896713257,97811.0,23.33,29.0
75.70009756088257,98218.0,23.33,29.0
75.75999450683594,98339.0,23.33,29.0
75.820072889328,98411.0,23.33,29.0
75.88004565238953,98454.0,23.33,29.0
75.94008708000183,98241.0,23.33,29.0
76.00000023841858,96441.0,23.33,29.0
76.06002998352051,94287.0,23.33,29.0
76.11802554130554,93722.0,23.33,29.0
76.17809677124023,95919.0,23.33,29.0
76.23803424835205,97732.0,23.33,29.0
76.29799795150757,96238.0,23.33,29.0
76.35798072814941,94063.0,23.33,29.0
76.41798996925354,95073.0,23.33,29.0
76.47801852226257,97371.0,23.33,29.0
76.53804969787598,96600.0,23.33,29.0
76.59798765182495,93517.0,23.33,29.0
76.65800213813782,95206.0,23.33,29.0
76.71801471710205,96788.0,23.33,29.0
76.7780065536499,97589.0,23.33,29.0
76.83796620368958,98059.0,23.33,29.0
76.8959813117981,98489.0,23.33,29.0
76.95594763755798,98480.0,23.33,29.0
77.01601076126099,95902.0,23.33,29.0
77.07598233222961,94571.0,23.33,29.0
77.13605427742004,95519.0,23.33,29.0
77.19604587554932,97509.0,23.33,29.0
77.25601196289062,95900.0,23.33,29.0
77.31596279144287,93525.0,23.33,29.0
77.37596464157104,95015.0,23.33,29.0
77.43597030639648,96961.0,1.93,29.0
77.4960196018219,97448.0,1.93,29.0
77.55595755577087,97633.0,1.93,29.0
77.61398601531982,97895.0,1.93,29.0
77.67496514320374,98099.0,1.93,29.0
77.73503041267395,96451.0,1.93,29.0
77.79395818710327,94740.0,1.93,29.0
77.85399007797241,94485.0,1.93,29.0
77.91496062278748,94089.0,1.93,29.0
77.97295427322388,94028.0,1.93,29.0
78.03294706344604,95397.0,1.93,29.0
78.09296131134033,97365.0,1.93,29.0
78.15296173095703,98213.0,1.93,29.0
78.2139823436737,98590.0,1.93,29.0
78.27299737930298,98842.0,1.93,29.0
78.33397579193115,98886.0,1.93,29.0
78.39297080039978,99079.0,1.93,29.0
78.4519591331482,99323.0,1.93,29.0
78.5129508972168,99202.0,1.93,29.0
78.57197690010071,99140.0,52.82,35.0
78.63197350502014,99327.0,52.82,35.0
78.69201231002808,99537.0,52.82,35.0
78.75204300880432,99503.0,52.82,35.0
78.81199026107788,99540.0,52.82,35.0
78.87099957466125,99553.0,52.82,35.0
78.93104076385498,99584.0,52.82,35.0
78.99101829528809,99695.0,52.82,35.0
79.05098366737366,99682.0,52.82,35.0
79.11104440689087,99670.0,52.82,35.0
79.17094993591309,99728.0,52.82,35.0
79.23104953765869,99644.0,52.82,35.0
79.29095196723938,99745.0,52.82,35.0
79.35096716880798,99841.0,52.82,35.0
79.41099262237549,99676.0,52.82,35.0
79.46896171569824,99436.0,52.82,35.0
79.52901458740234,99516.0,52.82,35.0
79.58900022506714,99641.0,52.82,35.0
79.64897966384888,99696.0,52.82,35.0
79.70896410942078,99732.0,52.82,35.0
79.76897072792053,99588.0,52.82,35.0
79.8289704322815,99651.0,52.82,35.0
79.88899254798889,99694.0,52.82,35.0
79.94899821281433,99721.0,52.82,35.0
80.00899386405945,99717.0,52.82,35.0
80.06896209716797,99726.0,52.82,35.0
80.12898230552673,99786.0,52.82,35.0
80.18900203704834,99853.0,52.82,35.0
80.24698972702026,99838.0,52.82,35.0
80.30698657035828,99874.0,52.82,35.0
80.3669502735138,99987.0,52.82,35.0
80.4269745349884,99830.0,52.82,35.0
80.48694849014282,99635.0,52.82,35.0
80.54695725440979,99677.0,52.82,35.0
80.60698080062866,99721.0,52.82,35.0
80.66697025299072,99834.0,52.82,35.0
80.72695994377136,99868.0,52.82,35.0
80.7869086265564,99784.0,52.82,35.0
80.84694027900696,99749.0,52.82,35.0
80.90695405006409,99850.0,52.82,35.0
80.96691417694092,99850.0,52.82,35.0
81.02494716644287,99827.0,52.82,35.0
81.08492279052734,99783.0,52.82,35.0
81.14496326446533,99875.0,52.82,35.0
81.2049503326416,99890.0,52.82,35.0
81.26493072509766,99698.0,52.82,35.0
81.32491254806519,99688.0,52.82,35.0
81.3849139213562,99690.0,52.82,35.0
81.44494867324829,99786.0,52.82,35.0
81.50496172904968,99776.0,52.82,35.0
81.5649299621582,99802.0,52.82,35.0
81.62493968009949,99888.0,52.82,35.0
81.68492555618286,100015.0,52.82,35.0
81.74292039871216,99978.0,52.82,35.0
81.80291509628296,100019.0,52.82,35.0
81.86293578147888,99995.0,52.82,35.0
81.92292714118958,100010.0,52.82,35.0
81.98292660713196,100063.0,52.82,35.0
82.04293274879456,99931.0,52.82,35.0
82.10294723510742,99650.0,52.82,35.0
82.16293525695801,99695.0,52.82,35.0
82.22292828559875,99744.0,52.82,35.0
82.28295516967773,99795.0,52.82,35.0
82.34293580055237,99844.0,52.82,35.0
82.40293288230896,99832.0,52.82,35.0
82.46293115615845,99851.0,52.82,35.0
82.5209333896637,99927.0,52.82,35.0
82.58096742630005,99921.0,52.82,35.0
82.6409261226654,99970.0,52.82,35.0
82.70093774795532,99881.0,52.82,35.0
82.760977268219,99910.0,52.82,35.0
82.82093000411987,100026.0,52.82,35.0
82.881014585495,99827.0,52.82,35.0
82.9410388469696,99681.0,52.82,35.0
83.00097632408142,99754.0,52.82,35.0
83.06091904640198,99693.0,52.82,35.0
83.12098693847656,99833.0,52.82,35.0
83.18094968795776,99940.0,52.82,35.0
83.24094462394714,99936.0,52.82,35.0
83.29895329475403,99954.0,52.82,35.0
83.35893702507019,100053.0,52.82,35.0
83.41893029212952,100034.0,52.82,35.0
83.47892928123474,100043.0,52.82,35.0
83.5389769077301,100045.0,52.82,35.0
83.59892988204956,99953.0,52.82,35.0
83.65896272659302,99763.0,52.82,35.0
83.71893692016602,99783.0,52.82,35.0
83.77897238731384,99776.0,52.82,35.0
83.83897018432617,99850.0,52.82,35.0
83.8989474773407,99836.0,52.82,35.0
83.9589295387268,99815.0,52.82,35.0
84.01697134971619,99833.0,52.82,35.0
84.07695126533508,99888.0,52.82,35.0
84.13692831993103,99821.0,52.82,35.0
84.1969645023346,99753.0,52.82,35.0
84.25694155693054,99712.0,52.82,35.0
84.31693124771118,99767.0,52.82,35.0
84.37693309783936,99958.0,52.82,35.0
84.4369330406189,99935.0,52.82,35.0
84.49698543548584,99650.0,52.82,35.0
84.55696535110474,99653.0,52.82,35.0
84.61695122718811,99695.0,52.82,35.0
84.67703008651733,99779.0,52.82,35.0
84.73696303367615,99762.0,52.82,35.0
84.79494071006775,99720.0,52.82,35.0
84.85500240325928,99824.0,52.82,35.0
84.91495847702026,99859.0,52.82,35.0
84.97494673728943,99841.0,52.82,35.0
85.03496193885803,99828.0,52.82,35.0
85.09494137763977,99799.0,52.82,35.0
85.15499496459961,99804.0,52.82,35.0
85.21491289138794,99827.0,52.82,35.0
85.27494788169861,99838.0,52.82,35.0
85.33495354652405,99882.0,52.82,35.0
85.39495825767517,99797.0,52.82,35.0
85.45495367050171,99842.0,52.82,35.0
85.51494693756104,99885.0,52.82,35.0
85.57294607162476,99734.0,52.82,35.0
85.63294887542725,99574.0,52.82,35.0
85.69294285774231,99609.0,52.82,35.0
85.75293803215027,99467.0,52.82,35.0
85.81293439865112,99394.0,52.82,35.0
85.87297987937927,99420.0,52.82,35.0
85.93294835090637,99407.0,52.82,35.0
85.99294066429138,99462.0,52.82,35.0
86.05294966697693,99606.0,52.82,35.0
86.11294889450073,99642.0,52.82,35.0
86.17289996147156,99630.0,52.82,35.0
86.23294186592102,99683.0,52.82,35.0
86.29294967651367,99658.0,52.82,35.0
86.35096502304077,99735.0,52.82,35.0
86.41096758842468,99812.0,52.82,35.0
86.47096610069275,99794.0,52.82,35.0
86.53091764450073,99530.0,52.82,35.0
86.59092664718628,99473.0,52.82,35.0
86.65097117424011,99605.0,52.82,35.0
86.71091341972351,99647.0,52.82,35.0
86.77095985412598,99672.0,52.82,35.0
86.83094334602356,99607.0,52.82,35.0
86.8909764289856,99615.0,52.82,35.0
86.9509449005127,99686.0,52.82,35.0
87.01092982292175,99691.0,52.82,35.0
87.07091045379639,99721.0,52.82,35.0
87.12893414497375,99698.0,52.82,35.0
87.18891024589539,99688.0,52.82,35.0
87.24895167350769,99738.0,52.82,35.0
87.30891823768616,99771.0,52.82,35.0
87.3689215183258,99721.0,52.82,35.0
87.42891263961792,99427.0,52.82,35.0
87.48894906044006,99345.0,52.82,35.0
87.54893183708191,99461.0,52.82,35.0
87.60897326469421,99473.0,52.82,35.0
87.66893029212952,99475.0,52.82,35.0
87.72894406318665,99430.0,52.82,35.0
87.7889187335968,99382.0,52.82,35.0
87.84893465042114,99445.0,52.82,35.0
87.9069619178772,99508.0,52.82,35.0
87.96696162223816,99461.0,52.82,35.0
88.02694058418274,99484.0,52.82,35.0
88.08691120147705,99434.0,52.82,35.0
88.14692497253418,99401.0,52.82,35.0
88.20694017410278,99220.0,52.82,35.0
88.26695036888123,98996.0,52.82,35.0
88.32694506645203,99089.0,52.82,35.0
88.38693451881409,99326.0,52.82,35.0
88.44694662094116,99332.0,52.82,35.0
88.50699758529663,99280.0,52.82,35.0
88.56691217422485,99147.0,52.82,35.0
88.62697553634644,99214.0,52.82,35.0
88.68496870994568,99320.0,52.82,35.0
88.74494767189026,99389.0,52.82,35.0
88.80485224723816,99376.0,52.82,35.0
88.86492824554443,99259.0,52.82,35.0
88.92485690116882,99242.0,52.82,35.0
88.98495054244995,99116.0,52.82,35.0
89.04495525360107,99126.0,52.82,35.0
89.104905128479,99248.0,52.82,35.0
89.16487693786621,99150.0,52.82,35.0
89.22492146492004,99200.0,52.82,35.0
89.28486585617065,99226.0,52.82,35.0
89.34492301940918,99270.0,52.82,35.0
89.40486812591553,99309.0,52.82,35.0
89.46299648284912,99369.0,52.82,35.0
89.52290892601013,99353.0,52.82,35.0
89.58296012878418,99409.0,52.82,35.0
89.64292883872986,99481.0,52.82,35.0
89.7029287815094,99405.0,52.82,35.0
89.76285195350647,99126.0,52.82,35.0
89.82290959358215,99183.0,52.82,35.0
89.88292694091797,99274.0,52.82,35.0
89.94283890724182,99329.0,52.82,35.0
90.0028645992279,99389.0,52.82,35.0
90.06286311149597,99317.0,52.82,35.0
90.12295198440552,99314.0,52.82,35.0
90.18286561965942,99307.0,52.82,35.0
90.24094796180725,99335.0,52.82,35.0
90.30091643333435,99382.0,52.82,35.0
90.36093926429749,99310.0,52.82,35.0
90.42086029052734,99462.0,52.82,35.0
90.48100352287292,99542.0,52.82,35.0
90.54094982147217,99289.0,52.82,35.0
90.6008574962616,99159.0,4.99,35.0
90.66084742546082,99219.0,4.99,35.0
90.72097849845886,99443.0,4.99,35.0
90.78095078468323,99428.0,4.99,35.0
90.84084463119507,99415.0,4.99,35.0
90.90087223052979,99390.0,4.99,35.0
90.95896363258362,99410.0,4.99,35.0
91.01888251304626,99499.0,4.99,35.0
91.07893753051758,99518.0,4.99,35.0
91.13892364501953,99476.0,4.99,35.0
91.19889807701111,99469.0,4.99,35.0
91.25898003578186,99518.0,4.99,35.0
91.3189332485199,99598.0,4.99,35.0
91.37887167930603,99301.0,4.99,35.0
91.43894672393799,99210.0,4.99,35.0
91.49892854690552,99284.0,4.99,35.0
91.55892896652222,99415.0,4.99,35.0
91.61885261535645,99444.0,4.99,35.0
91.67892909049988,99443.0,4.99,35.0
91.7369282245636,99393.0,4.99,35.0
91.79692673683167,99422.0,4.99,35.0
91.85686779022217,99478.0,4.99,35.0
91.91693019866943,99503.0,4.99,35.0
91.97687005996704,99454.0,4.99,35.0
92.03690886497498,99474.0,4.99,35.0
92.09688782691956,99539.0,4.99,35.0
92.15686297416687,99496.0,4.99,35.0
92.21687316894531,99542.0,4.99,35.0
92.27687239646912,99549.0,4.99,35.0
92.33683490753174,99355.0,4.99,35.0
92.39680409431458,99187.0,4.99,35.0
92.45681667327881,99286.0,4.99,35.0
92.51685738563538,99440.0,4.99,35.0
92.57479071617126,99478.0,4.99,35.0
92.63493728637695,99479.0,4.99,35.0
92.6948709487915,99479.0,4.99,35.0
92.75498342514038,99428.0,4.99,35.0
92.81486487388611,99576.0,4.99,35.0
92.87586641311646,99549.0,4.99,35.0
92.93386054039001,99497.0,4.99,35.0
92.99389314651489,99422.0,4.99,35.0
93.05384254455566,99376.0,4.99,35.0
93.11381077766418,99472.0,4.99,35.0
93.17384314537048,99372.0,4.99,35.0
93.2338514328003,99057.0,4.99,35.0
93.29381036758423,99000.0,4.99,35.0
93.35281705856323,99088.0,4.99,35.0
93.41287136077881,99144.0,4.99,35.0
93.4729495048523,99181.0,4.99,35.0
93.53284430503845,99147.0,4.99,35.0
93.59384083747864,99034.0,4.99,35.0
93.6538782119751,99130.0,4.99,35.0
93.71189045906067,99228.0,4.99,35.0
93.77182126045227,99203.0,4.99,35.0
93.83181357383728,99088.0,4.99,35.0
93.89180183410645,99058.0,4.99,35.0
93.95180225372314,99041.0,4.99,35.0
94.01183080673218,98798.0,4.99,35.0
94.07185530662537,98611.0,4.99,35.0
94.13186693191528,98746.0,4.99,35.0
94.19196653366089,98882.0,4.99,35.0
94.25183463096619,98920.0,4.99,35.0
94.31187891960144,98873.0,4.99,35.0
94.37181973457336,98701.0,4.99,35.0
94.43083953857422,98695.0,4.99,35.0
94.49083757400513,98744.0,4.99,35.0
94.55084156990051,98908.0,4.99,35.0
94.61084485054016,98964.0,4.99,35.0
94.67082142829895,98966.0,4.99,35.0
94.73085236549377,99147.0,4.99,35.0
94.79085350036621,99155.0,4.99,35.0
94.84883069992065,98962.0,4.99,35.0
94.90884232521057,98743.0,4.99,35.0
94.96887707710266,98909.0,4.99,35.0
95.02886152267456,99190.0,4.99,35.0
95.08884835243225,99307.0,4.99,35.0
95.1488447189331,99580.0,4.99,35.0
95.20883393287659,99698.0,4.99,35.0
95.26886415481567,99638.0,4.99,35.0
95.328861951828,99644.0,4.99,35.0
95.38883924484253,99628.0,4.99,35.0
95.4487817287445,99601.0,4.99,35.0
95.50882077217102,99733.0,12.22,35.0
95.56882572174072,99875.0,12.22,35.0
95.62684965133667,99695.0,12.22,35.0
95.68683290481567,99560.0,12.22,35.0
95.74683880805969,99539.0,12.22,35.0
95.80677962303162,99564.0,12.22,35.0
95.86678338050842,99568.0,12.22,35.0
95.92685031890869,99694.0,12.22,35.0
95.98685145378113,99716.0,12.22,35.0
96.04675245285034,99750.0,12.22,35.0
96.10686135292053,99861.0,12.22,35.0
96.16690945625305,99822.0,12.22,35.0
96.22681927680969,99851.0,12.22,35.0
96.28681325912476,99859.0,12.22,35.0
96.3468291759491,99789.0,12.22,35.0
96.40476727485657,99773.0,12.22,35.0
96.46481132507324,99568.0,12.22,35.0
96.5247893333435,99424.0,12.22,35.0
96.58482718467712,99574.0,12.22,35.0
96.64484715461731,99568.0,12.22,35.0
96.70481038093567,99504.0,12.22,35.0
96.76480674743652,99431.0,12.22,35.0
96.82481646537781,99443.0,12.22,35.0
96.88481497764587,99441.0,12.22,35.0
96.94483470916748,99632.0,12.22,35.0
97.0047664642334,99526.0,12.22,35.0
97.06482458114624,99496.0,12.22,35.0
97.12480354309082,99464.0,12.22,35.0
97.1828179359436,99536.0,12.22,35.0
97.24279069900513,99711.0,12.22,35.0
97.30277109146118,99744.0,12.22,35.0
97.36284184455872,99771.0,12.22,35.0
97.42280673980713,99857.0,12.22,35.0
97.48277997970581,99810.0,12.22,35.0
97.54278588294983,99625.0,29.5,31.0
97.60279774665833,99678.0,29.5,31.0
97.66280603408813,99720.0,29.5,31.0
97.72279167175293,99784.0,29.5,31.0
97.78278255462646,99728.0,29.5,31.0
97.84279441833496,99636.0,29.5,31.0
97.90280222892761,99535.0,29.5,31.0
97.96083950996399,99474.0,29.5,31.0
98.0207908153534,99681.0,29.5,31.0
98.08082580566406,99618.0,29.5,31.0
98.14080834388733,99571.0,29.5,31.0
98.20078897476196,99300.0,29.5,31.0
98.2607913017273,99254.0,29.5,31.0
98.32078862190247,99383.0,29.5,31.0
98.38079619407654,99649.0,29.5,31.0
98.44081401824951,99436.0,29.5,31.0
98.50077176094055,99229.0,29.5,31.0
98.56080961227417,99193.0,29.5,31.0
98.62079310417175,99110.0,29.5,31.0
98.67876815795898,99288.0,29.5,31.0
98.73879194259644,99550.0,29.5,31.0
98.79874277114868,99682.0,29.5,31.0
98.85874342918396,99731.0,29.5,31.0
98.91882181167603,99638.0,29.5,31.0
98.97879886627197,99425.0,29.5,31.0
99.0387749671936,99292.0,29.5,31.0
99.09874510765076,99559.0,29.5,31.0
99.15873908996582,99556.0,29.5,31.0
99.21878409385681,99618.0,29.5,31.0
99.27880549430847,99673.0,29.5,31.0
99.33885359764099,99623.0,29.5,31.0
99.3987865447998,99529.0,29.5,31.0
99.45673513412476,99664.0,29.5,31.0
99.51673746109009,99827.0,29.5,31.0
99.57679843902588,99904.0,29.5,31.0
99.63674330711365,99862.0,28.65,33.0
99.69674158096313,99798.0,28.65,33.0
99.75676536560059,99892.0,28.65,33.0
99.81673955917358,100033.0,28.65,33.0
99.8767740726471,100021.0,28.65,33.0
99.93679690361023,99966.0,28.65,33.0
99.9967999458313,99861.0,28.65,33.0
100.05678606033325,99937.0,28.65,33.0
100.11677932739258,99775.0,28.65,33.0
100.17477178573608,99513.0,28.65,33.0
100.23477673530579,99525.0,28.65,33.0
100.29475522041321,99625.0,28.65,33.0
100.35483050346375,99701.0,28.65,33.0
100.41475343704224,99757.0,28.65,33.0
100.47479343414307,99700.0,28.65,33.0
100.53480291366577,99640.0,28.65,33.0
100.59471988677979,99728.0,28.65,33.0
100.65471386909485,99846.0,28.65,33.0
100.71476316452026,99888.0,28.65,33.0
100.77473092079163,99822.0,28.65,33.0
100.83479499816895,99840.0,28.65,33.0
100.89479422569275,99658.0,28.65,33.0
100.95281410217285,99630.0,28.65,33.0
101.01271295547485,99698.0,28.65,33.0
101.07276606559753,99818.0,28.65,33.0
101.13276982307434,99855.0,28.65,33.0
101.1927638053894,99918.0,28.65,33.0
101.25271129608154,99879.0,28.65,33.0
101.31271004676819,99849.0,28.65,33.0
101.37275314331055,99946.0,28.65,33.0
101.43272137641907,99954.0,28.65,33.0
101.49276447296143,100080.0,28.65,33.0
101.55276203155518,100188.0,28.65,33.0
101.61279153823853,100025.0,28.65,33.0
101.67274332046509,99806.0,28.65,33.0
101.73079371452332,99794.0,28.65,33.0
101.79074597358704,99967.0,28.65,33.0
101.8507821559906,100008.0,28.65,33.0
101.91074347496033,99954.0,28.65,33.0
101.97071170806885,99912.0,28.65,33.0
102.03074669837952,99898.0,28.65,33.0
102.09076380729675,99963.0,28.65,33.0
102.15071487426758,99973.0,28.65,33.0
102.21077179908752,100004.0,28.65,33.0
102.27074933052063,100056.0,28.65,33.0
102.33073616027832,99968.0,28.65,33.0
102.39074921607971,99760.0,28.65,33.0
102.45074963569641,99711.0,28.65,33.0
102.50877141952515,99800.0,28.65,33.0
102.56876540184021,99881.0,28.65,33.0
102.62873458862305,99911.0,28.65,33.0
102.68871521949768,99853.0,28.65,33.0
102.74876666069031,99801.0,28.65,33.0
102.80879211425781,99835.0,28.65,33.0
102.86874651908875,99941.0,28.65,33.0
102.9287440776825,99994.0,28.65,33.0
102.9887421131134,99968.0,28.65,33.0
103.04881691932678,99860.0,28.65,33.0
103.10873579978943,99912.0,28.65,33.0
103.16874361038208,99813.0,28.65,33.0
103.22674202919006,99547.0,28.65,33.0
103.28675055503845,99602.0,28.65,33.0
103.34682202339172,99580.0,28.65,33.0
103.40669846534729,99730.0,28.65,33.0
103.46674466133118,99756.0,28.65,33.0
103.52677702903748,99747.0,28.65,33.0
103.58670210838318,99731.0,28.65,33.0
103.64674472808838,99747.0,28.65,33.0
103.7067301273346,99826.0,28.65,33.0
103.76671981811523,99872.0,28.65,33.0
103.82673072814941,99847.0,28.65,33.0
103.88669514656067,99811.0,28.65,33.0
103.94673466682434,99735.0,28.65,33.0
104.00473952293396,99789.0,28.65,33.0
104.06464862823486,99848.0,28.65,33.0
104.12472748756409,99800.0,28.65,33.0
104.18475770950317,99863.0,28.65,33.0
104.24468803405762,99771.0,28.65,33.0
104.3046875,99489.0,28.65,33.0
104.36477518081665,99425.0,28.65,33.0
104.424724817276,99468.0,28.65,33.0
104.48476719856262,99578.0,28.65,33.0
104.5446949005127,99606.0,28.65,33.0
104.60481429100037,99523.0,28.65,33.0
104.66474938392639,99494.0,28.65,33.0
104.7247269153595,99612.0,28.65,33.0
104.78275489807129,99583.0,28.65,33.0
104.84276032447815,99610.0,28.65,33.0
104.9027054309845,99727.0,28.65,33.0
104.96279525756836,99671.0,28.65,33.0
105.02273321151733,99629.0,28.65,33.0
105.08277416229248,99646.0,28.65,33.0
105.14269018173218,99662.0,28.65,33.0
105.20273184776306,99688.0,28.65,33.0
105.26270532608032,99509.0,28.65,33.0
105.32273650169373,99364.0,28.65,33.0
105.38273787498474,99368.0,28.65,33.0
105.44270968437195,99459.0,28.65,33.0
105.5027539730072,99510.0,28.65,33.0
105.56070733070374,99598.0,28.65,33.0
105.62074851989746,99571.0,28.65,33.0
105.68075013160706,99542.0,28.65,33.0
105.74069237709045,99578.0,28.65,33.0
105.80069971084595,99618.0,28.65,33.0
105.86072659492493,99636.0,28.65,33.0
105.92071223258972,99585.0,28.65,33.0
105.98070693016052,99675.0,28.65,33.0
106.04071354866028,99680.0,28.65,33.0
106.10075378417969,99611.0,28.65,33.0
106.16071772575378,99742.0,28.65,33.0
106.22074842453003,99712.0,28.65,33.0
106.2807068824768,99480.0,28.65,33.0
106.33871269226074,99366.0,28.65,33.0
106.39873957633972,99437.0,28.65,33.0
106.45867395401001,99551.0,28.65,33.0
106.5187177658081,99565.0,28.65,33.0
106.5786497592926,99520.0,28.65,33.0
106.63868498802185,99457.0,28.65,33.0
106.69875240325928,99463.0,28.65,33.0
106.758704662323,99508.0,28.65,33.0
106.81866884231567,99610.0,28.65,33.0
106.87868189811707,99579.0,28.65,33.0
106.93867564201355,99539.0,28.65,33.0
106.99870157241821,99603.0,28.65,33.0
107.05664396286011,99541.0,28.65,33.0
107.11670207977295,99293.0,28.65,33.0
107.17664885520935,99210.0,28.65,33.0
107.23670387268066,99261.0,28.65,33.0
107.29670310020447,99364.0,28.65,33.0
107.35671138763428,99385.0,28.65,33.0
107.41670823097229,99383.0,28.65,33.0
107.47669696807861,99383.0,28.65,33.0
107.53671216964722,99382.0,28.65,33.0
107.59668302536011,99458.0,28.65,33.0
107.6567656993866,99510.0,28.65,33.0
107.71673440933228,99434.0,28.65,33.0
107.77465486526489,99388.0,28.65,33.0
107.83470916748047,99443.0,28.65,33.0
107.89468455314636,99554.0,28.65,33.0
107.95468497276306,99467.0,28.65,33.0
108.01475024223328,99155.0,28.65,33.0
108.07468152046204,99121.0,28.65,33.0
108.13470983505249,99153.0,28.65,33.0
108.19468331336975,99268.0,28.65,33.0
108.2546706199646,99418.0,28.65,33.0
108.314688205719,99456.0,28.65,33.0
108.37476086616516,99539.0,28.65,33.0
108.43468594551086,99535.0,28.65,33.0
108.49470329284668,99627.0,28.65,33.0
108.55264043807983,99690.0,28.65,33.0
108.61267948150635,99734.0,28.65,33.0
108.67268896102905,99769.0,28.65,33.0
108.73267269134521,99687.0,28.65,33.0
108.79267811775208,99753.0,28.65,33.0
108.85261940956116,99738.0,28.65,33.0
108.91273355484009,99414.0,28.65,33.0
108.97267746925354,99351.0,6.43,33.0
109.03272366523743,99328.0,6.43,33.0
109.09265470504761,99273.0,6.43,33.0
109.15268039703369,99430.0,6.43,33.0
109.21266889572144,99451.0,6.43,33.0
109.27266192436218,99401.0,6.43,33.0
109.3307237625122,99429.0,6.43,33.0
109.39066290855408,99523.0,6.43,33.0
109.4506483078003,99635.0,6.43,33.0
109.51071333885193,99604.0,6.43,33.0
109.57064580917358,99578.0,6.43,33.0
109.6306848526001,99622.0,6.43,33.0
109.69066500663757,99713.0,6.43,33.0
109.7506673336029,99600.0,6.43,33.0
109.81067752838135,99332.0,6.43,33.0
109.8706841468811,99344.0,6.43,33.0
109.93069005012512,99466.0,6.43,33.0
109.99068474769592,99513.0,58.94,41.0
110.04860377311707,99567.0,58.94,41.0
110.10865759849548,99579.0,58.94,41.0
110.16865372657776,99535.0,58.94,41.0
110.22860336303711,99573.0,58.94,41.0
110.28865265846252,99621.0,58.94,41.0
110.34863018989563,99660.0,58.94,41.0
110.40866947174072,99669.0,58.94,41.0
110.46867752075195,99661.0,58.94,41.0
110.52865505218506,99667.0,58.94,41.0
110.58863687515259,99688.0,58.94,41.0
110.64863753318787,99696.0,58.94,41.0
110.70861029624939,99704.0,58.94,41.0
110.76861619949341,99785.0,58.94,41.0
110.82664823532104,99628.0,58.94,41.0
110.88667321205139,99352.0,58.94,41.0
110.94663047790527,99412.0,58.94,41.0
111.00664615631104,99441.0,58.94,41.0
111.06670880317688,99580.0,58.94,41.0
111.12664294242859,99683.0,58.94,41.0
111.18670058250427,99595.0,58.94,41.0
111.24662852287292,99620.0,58.94,41.0
111.30664896965027,99674.0,58.94,41.0
111.36661911010742,99712.0,58.94,41.0
111.42660927772522,99768.0,58.94,41.0
111.48666548728943,99799.0,58.94,41.0
111.54661750793457,99794.0,58.94,41.0
111.60461068153381,99806.0,58.94,41.0
111.66460919380188,99777.0,58.94,41.0
111.72463655471802,99814.0,58.94,41.0
111.78466606140137,99801.0,58.94,41.0
111.84465193748474,99693.0,58.94,41.0
111.90462279319763,99461.0,58.94,41.0
111.96465826034546,99444.0,58.94,41.0
112.02464246749878,99582.0,58.94,41.0
112.08458113670349,99677.0,58.94,41.0
112.14467120170593,99752.0,58.94,41.0
112.20465874671936,99717.0,58.94,41.0
112.26462125778198,99656.0,58.94,41.0
112.32466101646423,99676.0,58.94,41.0
112.38261795043945,99817.0,58.94,41.0
112.4426748752594,99957.0,58.94,41.0
112.50267505645752,99982.0,58.94,41.0
112.56260251998901,99819.0,58.94,41.0
112.62272834777832,99920.0,58.94,41.0
112.68260216712952,100022.0,58.94,41.0
112.74265217781067,100107.0,58.94,41.0
112.80263471603394,99981.0,58.94,41.0
112.86261916160583,99938.0,58.94,41.0
112.92262721061707,99962.0,58.94,41.0
112.98265099525452,100031.0,58.94,41.0
113.04262566566467,100076.0,58.94,41.0
113.10264372825623,100035.0,58.94,41.0
113.16063261032104,100021.0,58.94,41.0
113.22062587738037,99983.0,58.94,41.0
113.28066325187683,100062.0,58.94,41.0
113.34064221382141,100062.0,58.94,41.0
113.40062046051025,100103.0,58.94,41.0
113.46061968803406,100118.0,58.94,41.0
113.52060437202454,100151.0,58.94,41.0
113.58061075210571,100166.0,58.94,41.0
113.64058804512024,100175.0,58.94,41.0
113.70062184333801,100221.0,58.94,41.0
113.76062202453613,100301.0,58.94,41.0
113.82058191299438,100248.0,58.94,41.0
113.88063979148865,100009.0,58.94,41.0
113.93862295150757,99932.0,58.94,41.0
113.99858593940735,100027.0,58.94,41.0
114.05866575241089,100121.0,58.94,41.0
114.11864137649536,100144.0,58.94,41.0
114.17860794067383,100097.0,58.94,41.0
114.23862195014954,100138.0,58.94,41.0
114.29864072799683,100051.0,58.94,41.0
114.35866332054138,100140.0,58.94,41.0
114.41862416267395,100274.0,58.94,41.0
114.47858452796936,100277.0,58.94,41.0
114.53862166404724,100242.0,58.94,41.0
114.59861373901367,100217.0,58.94,41.0
114.65665936470032,100285.0,58.94,41.0
114.71660995483398,100365.0,58.94,41.0
114.77668499946594,100243.0,58.94,41.0
114.83660674095154,100077.0,58.94,41.0
114.89663124084473,100120.0,58.94,41.0
114.95662641525269,100215.0,58.94,41.0
115.01664543151855,100252.0,58.94,41.0
115.07661390304565,100269.0,58.94,41.0
115.1366081237793,100256.0,58.94,41.0
115.19665026664734,100220.0,58.94,41.0
115.25659608840942,100283.0,58.94,41.0
115.31658124923706,100309.0,58.94,41.0
115.37659478187561,100345.0,58.94,41.0
115.43460512161255,100327.0,58.94,41.0
115.4945638179779,100318.0,58.94,41.0
115.55460381507874,100317.0,58.94,41.0
115.61463904380798,100365.0,58.94,41.0
115.67460298538208,100315.0,58.94,41.0
115.73458433151245,100336.0,58.94,41.0
115.79460024833679,100400.0,58.94,41.0
115.8545663356781,100308.0,58.94,41.0
115.91460371017456,100124.0,58.94,41.0
115.97459602355957,100174.0,58.94,41.0
116.03462386131287,100224.0,58.94,41.0
116.09463882446289,100336.0,58.94,41.0
116.15460538864136,100358.0,58.94,41.0
116.21254467964172,100346.0,58.94,41.0
116.27257561683655,100345.0,58.94,41.0
116.33264660835266,100406.0,58.94,41.0
116.39262461662292,100384.0,58.94,41.0
116.45257711410522,100437.0,58.94,41.0
116.5125949382782,100500.0,58.94,41.0
116.57260155677795,100429.0,58.94,41.0
116.63263130187988,100404.0,58.94,41.0
116.69258332252502,100537.0,58.94,41.0
116.75257921218872,100532.0,58.94,41.0
116.81253123283386,100374.0,58.94,41.0
116.87256360054016,100186.0,58.94,41.0
116.93057298660278,100164.0,58.94,41.0
116.99060559272766,100282.0,58.94,41.0
117.05054140090942,100322.0,58.94,41.0
117.1105592250824,100318.0,58.94,41.0
117.17058777809143,100279.0,58.94,41.0
117.23057222366333,100246.0,58.94,41.0
117.29059052467346,100266.0,58.94,41.0
117.35059309005737,100331.0,58.94,41.0
117.41057419776917,100404.0,58.94,41.0
117.47057628631592,100423.0,58.94,41.0
117.5305724143982,100489.0,58.94,41.0
117.59059739112854,100444.0,58.94,41.0
117.64861369132996,100261.0,58.94,41.0
117.70857787132263,100223.0,58.94,41.0
117.76858425140381,100287.0,58.94,41.0
117.82860684394836,100324.0,58.94,41.0
117.88862586021423,100393.0,7.6,41.0
117.94860935211182,100370.0,7.6,41.0
118.00859713554382,100312.0,7.6,41.0
118.06864929199219,100358.0,7.6,41.0
118.12855458259583,100414.0,7.6,41.0
118.18855309486389,100518.0,7.6,41.0
118.24860501289368,100461.0,7.6,41.0
118.30860018730164,100455.0,7.6,41.0
118.36862206459045,100388.0,7.6,41.0
118.42661762237549,100367.0,7.6,41.0
118.4866213798523,100467.0,7.6,41.0
118.54656052589417,100389.0,7.6,41.0
118.60661816596985,100236.0,7.6,41.0
118.66654300689697,100142.0,7.6,41.0
118.72657442092896,100235.0,7.6,41.0
118.7865846157074,100338.0,7.6,41.0
118.84657168388367,100423.0,7.6,41.0
118.90561318397522,100451.0,7.6,41.0
118.96554207801819,100384.0,7.6,41.0
119.02551794052124,100383.0,7.6,41.0
119.08562517166138,100429.0,7.6,41.0
119.14553689956665,100398.0,7.6,41.0
119.20557856559753,100392.0,7.6,41.0
119.26556301116943,100364.0,7.6,41.0
119.32557153701782,100527.0,7.6,41.0
119.38553357124329,100547.0,7.6,41.0
119.44459390640259,100495.0,7.6,41.0
119.50456237792969,100447.0,7.6,41.0
119.56460309028625,100374.0,7.6,41.0
119.6245527267456,100481.0,7.6,41.0
119.68454170227051,100674.0,7.6,41.0
119.74463367462158,100737.0,7.6,41.0
119.80449724197388,100734.0,7.6,41.0
119.86462330818176,100752.0,7.6,41.0
119.92458176612854,100741.0,7.6,41.0
119.98256278038025,100695.0,7.6,41.0
120.0425477027893,100761.0,7.6,41.0
120.10256695747375,100754.0,7.6,41.0
120.16261124610901,100775.0,7.6,41.0
120.22251605987549,100709.0,7.6,41.0
120.28260207176208,100709.0,7.6,41.0
120.34261345863342,100642.0,7.6,41.0
120.40250658988953,100541.0,7.6,41.0
120.46158933639526,100599.0,7.6,41.0
120.5215253829956,100630.0,7.6,41.0
120.58162832260132,100632.0,7.6,41.0
120.64157915115356,100683.0,7.6,41.0
120.7016007900238,100609.0,7.6,41.0
120.76152300834656,100596.0,7.6,41.0
120.82053780555725,100722.0,7.6,41.0
120.88052415847778,100851.0,7.6,41.0
120.9415807723999,100824.0,7.6,41.0
121.00156092643738,100818.0,7.6,41.0
121.06156778335571,100808.0,7.6,41.0
121.11953330039978,100852.0,7.6,41.0
121.1805591583252,100868.0,7.6,41.0
121.24053573608398,100870.0,7.6,41.0
121.30057120323181,100823.0,7.6,41.0
121.36058616638184,100909.0,7.6,41.0
121.42048501968384,100903.0,7.6,41.0
121.48051428794861,100701.0,7.6,41.0
121.53853440284729,100523.0,7.6,41.0
121.5985381603241,100617.0,7.6,41.0
121.65855813026428,100727.0,7.6,41.0
121.71855020523071,100736.0,7.6,41.0
121.77851152420044,100767.0,7.6,41.0
121.83951902389526,100716.0,7.6,41.0
121.89753007888794,100534.0,7.6,41.0
121.95764136314392,100450.0,7.6,41.0
122.01747703552246,100539.0,7.6,41.0
122.07757997512817,100554.0,7.6,41.0
122.13752961158752,100501.0,7.6,41.0
122.19755148887634,100437.0,7.6,41.0
122.25755906105042,100477.0,7.6,41.0
122.31653499603271,100596.0,7.6,41.0
122.3765594959259,100721.0,7.6,41.0
122.43652868270874,100667.0,7.6,41.0
122.4965672492981,100590.0,7.6,41.0
122.55653929710388,100544.0,7.6,41.0
122.61649370193481,100555.0,7.6,41.0
122.67654967308044,100549.0,7.6,41.0
122.73657011985779,100601.0,7.6,41.0
122.79651260375977,100649.0,7.6,41.0
122.8565194606781,100744.0,7.6,41.0
122.91656827926636,100734.0,7.6,41.0
122.976478099823,100755.0,7.6,41.0
123.03548121452332,100706.0,7.6,41.0
123.09555578231812,100761.0,7.6,41.0
123.15555238723755,100826.0,7.6,41.0
123.21554684638977,101027.0,7.6,41.0
123.27547979354858,100947.0,7.6,41.0
123.33556866645813,101035.0,11.02,41.0
123.3954873085022,100979.0,11.02,41.0
123.45347619056702,100760.0,11.02,41.0
123.51349115371704,100801.0,11.02,41.0
123.57348895072937,100910.0,11.02,41.0
123.63348960876465,100933.0,11.02,41.0
123.69348907470703,100882.0,11.02,41.0
123.75348997116089,100766.0,11.02,41.0
123.81349301338196,100652.0,11.02,41.0
123.87347960472107,100629.0,11.02,41.0
123.93349051475525,100685.0,11.02,41.0
123.99348998069763,100748.0,11.02,41.0
124.05345940589905,100746.0,11.02,41.0
124.11348867416382,100769.0,11.02,41.0
124.17348861694336,100768.0,11.02,41.0
124.2315285205841,100656.0,11.02,41.0
124.29153728485107,100580.0,11.02,41.0
124.35152816772461,100540.0,11.02,41.0
124.41159057617188,100605.0,11.02,41.0
124.47151327133179,100650.0,11.02,41.0
124.53158783912659,100634.0,11.02,41.0
124.59151673316956,100531.0,11.02,41.0
124.65154266357422,100581.0,11.02,41.0
124.71151947975159,100646.0,11.02,41.0
124.77151346206665,100730.0,11.02,41.0
124.83151745796204,100743.0,11.02,41.0
124.89151906967163,100734.0,11.02,41.0
124.94945669174194,100747.0,11.02,41.0
125.01057839393616,100596.0,11.02,41.0
125.07051849365234,100496.0,11.02,41.0
125.12948298454285,100548.0,11.02,41.0
125.1904604434967,100628.0,11.02,41.0
125.24946641921997,100630.0,11.02,41.0
125.31046986579895,100568.0,11.02,41.0
125.36949443817139,100505.0,11.02,41.0
125.42853546142578,100539.0,11.02,41.0
125.48949980735779,100592.0,11.02,41.0
125.54853892326355,100689.0,11.02,41.0
125.60949993133545,100690.0,11.02,41.0
125.66849517822266,100672.0,11.02,41.0
125.72846937179565,100657.0,11.02,41.0
125.78753185272217,100758.0,11.02,41.0
125.84752750396729,100722.0,11.02,41.0
125.90844249725342,100511.0,11.02,41.0
125.96846795082092,100524.0,11.02,41.0
126.02848482131958,100522.0,11.02,41.0
126.08649063110352,100553.0,11.02,41.0
126.14652252197266,100550.0,11.02,41.0
126.20642399787903,100568.0,11.02,41.0
126.26653504371643,100583.0,11.02,41.0
126.32641959190369,100583.0,11.02,41.0
126.38653683662415,100564.0,11.02,41.0
126.44648766517639,100507.0,11.02,41.0
126.50645351409912,100499.0,11.02,41.0
126.56643605232239,100524.0,11.02,41.0
126.6264591217041,100419.0,11.02,41.0
126.68643712997437,100346.0,11.02,41.0
126.74642515182495,100266.0,11.02,41.0
126.80447387695312,100275.0,11.02,41.0
126.86443638801575,100367.0,11.02,41.0
126.92442417144775,100390.0,11.02,41.0
126.98445677757263,100375.0,11.02,41.0
127.04445457458496,100415.0,11.02,41.0
127.1044294834137,100443.0,11.02,41.0
127.16445183753967,100443.0,11.02,41.0
127.22446537017822,100455.0,11.02,41.0
127.2844672203064,100450.0,11.02,41.0
127.34442210197449,100435.0,11.02,41.0
127.40442419052124,100418.0,11.02,41.0
127.4644250869751,100415.0,11.02,41.0
127.52443981170654,100356.0,11.02,41.0
127.58243250846863,99925.0,11.02,41.0
127.64244079589844,99537.0,11.02,41.0
127.7024896144867,99500.0,11.02,41.0
127.76241183280945,99533.0,11.02,41.0
127.82249593734741,99365.0,11.02,41.0
127.88241696357727,99205.0,11.02,41.0
127.94247198104858,99072.0,11.02,41.0
128.00239634513855,98945.0,11.02,41.0
128.06239461898804,98921.0,11.02,41.0
128.12245965003967,98951.0,11.02,41.0
128.1823935508728,98947.0,11.02,41.0
128.24239993095398,98958.0,11.02,41.0
128.30039429664612,99019.0,11.02,41.0
128.36041641235352,99117.0,11.02,41.0
128.42044138908386,99240.0,11.02,41.0
128.48040747642517,99221.0,11.02,41.0
128.54040145874023,99256.0,11.02,41.0
128.60042333602905,99292.0,11.02,41.0
128.66041588783264,99042.0,11.02,41.0
128.7204394340515,98840.0,11.02,41.0
128.78041791915894,98913.0,11.02,41.0
128.84041690826416,99092.0,11.02,41.0
128.9004361629486,99228.0,11.02,41.0
128.96041822433472,99293.0,11.02,41.0
129.02041220664978,99351.0,11.02,41.0
129.07842373847961,99349.0,11.02,41.0
129.13841652870178,99369.0,11.02,41.0
129.1984145641327,99361.0,11.02,41.0
129.2584626674652,99294.0,11.02,41.0
129.31844401359558,99107.0,11.02,41.0
129.37842726707458,98964.0,11.02,41.0
129.43844604492188,98844.0,11.02,41.0
129.4984474182129,98829.0,11.02,41.0
129.55840873718262,98593.0,11.02,41.0
129.61845588684082,98163.0,11.02,41.0
129.67840385437012,97853.0,11.02,41.0
129.7384490966797,97602.0,11.02,41.0
129.7964334487915,97314.0,11.02,41.0
129.85640621185303,97139.0,11.02,41.0
129.91643571853638,96885.0,11.02,41.0
129.97641134262085,96518.0,11.02,41.0
130.0363907814026,96188.0,11.02,41.0
130.0964915752411,95802.0,11.02,41.0
130.15640830993652,95266.0,11.02,41.0
130.21641373634338,94637.0,11.02,41.0
130.2764310836792,94200.0,11.02,41.0
130.3364133834839,93618.0,11.02,41.0
130.39640951156616,93024.0,11.02,41.0
130.45641374588013,92774.0,11.02,41.0
130.5164475440979,92216.0,11.02,41.0
130.57443523406982,89686.0,11.02,41.0
130.63442969322205,87753.0,11.02,41.0
130.69449543952942,87441.0,11.02,41.0
130.75440216064453,87447.0,11.02,41.0
130.81441354751587,87323.0,11.02,41.0
130.87441229820251,86952.0,11.02,41.0
130.93441319465637,86385.0,11.02,41.0
130.99443864822388,86443.0,11.02,41.0
131.05441761016846,86273.0,11.02,41.0
131.114426612854,86141.0,11.02,41.0
131.1743938922882,85881.0,11.02,41.0
131.23440980911255,85847.0,11.02,41.0
131.29441690444946,85421.0,11.02,41.0
131.35241293907166,84799.0,11.02,41.0
131.41242718696594,85149.0,11.02,41.0
131.47240924835205,85993.0,11.02,41.0
131.53242874145508,85458.0,11.02,41.0
131.59242510795593,83630.0,11.02,41.0
131.65242767333984,82567.0,11.02,41.0
131.7124218940735,82387.0,11.02,41.0
131.77242422103882,82773.0,11.02,41.0
131.83244609832764,84306.0,11.02,41.0
131.89240980148315,85727.0,11.02,41.0
131.9524281024933,86283.0,11.02,41.0
132.01238918304443,85709.0,11.02,41.0
132.07241916656494,83246.0,11.02,41.0
132.13046622276306,82515.0,11.02,41.0
132.19043898582458,82003.0,11.02,41.0
132.2504358291626,82339.0,11.02,41.0
132.3104202747345,82629.0,11.02,41.0
132.37042021751404,82731.0,11.02,41.0
132.43047285079956,82351.0,11.02,41.0
132.4904215335846,81993.0,11.02,41.0
132.55044984817505,82074.0,11.02,41.0
132.6104826927185,83014.0,11.02,41.0
132.67040872573853,82866.0,11.02,41.0
132.73043179512024,83179.0,11.02,41.0
132.7903745174408,85400.0,11.02,41.0
132.84842729568481,87038.0,11.02,41.0
132.90842819213867,87808.0,11.02,41.0
132.96843218803406,88494.0,11.02,41.0
133.02844047546387,89341.0,11.02,41.0
133.08842706680298,90243.0,11.02,41.0
133.1484317779541,90685.0,11.02,41.0
133.20845365524292,91019.0,11.02,41.0
133.26841688156128,91205.0,11.02,41.0
133.32842826843262,91112.0,11.02,41.0
133.38842105865479,91017.0,11.02,41.0
133.4484305381775,91058.0,11.02,41.0
133.50841641426086,90594.0,11.02,41.0
133.56843209266663,89865.0,11.02,41.0
133.62641501426697,89848.0,11.02,41.0
133.68644165992737,89824.0,11.02,41.0
133.7464451789856,89874.0,11.02,41.0
133.80644059181213,89993.0,11.02,41.0
133.8664209842682,89847.0,11.02,41.0
133.92639255523682,89844.0,11.02,41.0
133.98642492294312,89926.0,11.02,41.0
134.04642152786255,90124.0,11.02,41.0
134.10640406608582,90334.0,11.02,41.0
134.1664273738861,90448.0,11.02,41.0
134.2264370918274,90597.0,11.02,41.0
134.2864534854889,90592.0,11.02,41.0
134.346421957016,90808.0,11.02,41.0
134.40442371368408,90980.0,11.02,41.0
134.46441411972046,90997.0,11.02,41.0
134.52442741394043,90472.0,11.02,41.0
134.58444714546204,90278.0,11.02,41.0
134.64437460899353,90286.0,11.02,41.0
134.70444178581238,90391.0,11.02,41.0
134.76444101333618,90474.0,11.02,41.0
134.82440090179443,90395.0,11.02,41.0
134.88438653945923,90353.0,11.02,41.0
134.94433116912842,90488.0,11.02,41.0
135.00440382957458,90523.0,11.02,41.0
135.06440472602844,90697.0,11.02,41.0
135.1224558353424,90699.0,11.02,41.0
135.18245029449463,90639.0,11.02,41.0
135.242431640625,90990.0,11.02,41.0
135.30240750312805,91288.0,11.02,41.0
135.36246418952942,91351.0,11.02,41.0
135.42235851287842,91078.0,11.02,41.0
135.4834282398224,90935.0,11.02,41.0
135.54143357276917,90909.0,11.02,41.0
135.60135960578918,91050.0,11.02,41.0
135.6614875793457,91341.0,11.02,41.0
135.7214171886444,91146.0,11.02,41.0
135.78141403198242,91142.0,11.02,41.0
135.84143590927124,91262.0,11.02,41.0
135.901380777359,91223.0,11.02,41.0
135.96136784553528,91446.0,11.02,41.0
136.0214192867279,91593.0,11.02,41.0
136.0814027786255,91651.0,11.02,41.0
136.14134645462036,91629.0,11.02,41.0
136.20038414001465,91602.0,11.02,41.0
136.2604067325592,91724.0,11.02,41.0
136.32038593292236,91842.0,11.02,41.0
136.38040947914124,91970.0,11.02,41.0
136.4403977394104,91591.0,11.02,41.0
136.5003890991211,91072.0,11.02,41.0
136.56038808822632,91031.0,11.02,41.0
136.6203989982605,91226.0,11.02,41.0
136.6803493499756,91306.0,11.02,41.0
136.73833107948303,91410.0,11.02,41.0
136.79841947555542,91385.0,11.02,41.0
136.85834765434265,91363.0,11.02,41.0
136.91844391822815,91419.0,11.02,41.0
136.9783434867859,91553.0,11.02,41.0
137.0383939743042,91581.0,11.02,41.0
137.09829807281494,91555.0,11.02,41.0
137.15840315818787,91610.0,11.02,41.0
137.21833038330078,91746.0,11.02,41.0
137.27840995788574,91601.0,11.02,41.0
137.33832931518555,91287.0,11.02,41.0
137.39734959602356,91203.0,11.02,41.0
137.45742082595825,90958.0,11.02,41.0
137.517431974411,90937.0,11.02,41.0
137.57743287086487,90942.0,11.02,41.0
137.63742184638977,90952.0,11.02,41.0
137.69731068611145,91116.0,11.02,41.0
137.75732564926147,91375.0,11.02,41.0
137.81740021705627,91622.0,11.02,41.0
137.87539315223694,91679.0,11.02,41.0
137.93540358543396,91816.0,11.02,41.0
137.99540328979492,91896.0,11.02,41.0
138.05546164512634,91911.0,11.02,41.0
138.11535739898682,91933.0,11.02,41.0
138.1753523349762,92059.0,11.02,41.0
138.23531985282898,91608.0,11.02,41.0
138.29546523094177,91376.0,11.02,41.0
138.35540461540222,91527.0,11.02,41.0
138.41545176506042,91681.0,11.02,41.0
138.47542572021484,91678.0,11.02,41.0
138.53531336784363,91688.0,11.02,41.0
138.5953404903412,91717.0,11.02,41.0
138.65333676338196,91598.0,11.02,41.0
138.71341180801392,91705.0,11.02,41.0
138.7733404636383,91851.0,11.02,41.0
138.83334374427795,91770.0,11.02,41.0
138.8933343887329,91779.0,11.02,41.0
138.95334219932556,91892.0,11.02,41.0
139.0133445262909,92066.0,11.02,41.0
139.07332825660706,92083.0,11.02,41.0
139.1333463191986,92119.0,11.02,41.0
139.19333863258362,92329.0,11.02,41.0
139.25330066680908,92127.0,11.02,41.0
139.3132984638214,91633.0,11.02,41.0
139.37333941459656,91573.0,11.02,41.0
139.43138074874878,91741.0,11.02,41.0
139.49133110046387,91864.0,11.02,41.0
139.55142068862915,92061.0,11.02,41.0
139.61132264137268,91939.0,11.02,41.0
139.6714231967926,91903.0,11.02,41.0
139.73134589195251,91977.0,11.02,41.0
139.791348695755,91911.0,11.02,41.0
139.8513205051422,91984.0,11.02,41.0
139.91133522987366,92026.0,11.02,41.0
139.97137689590454,92005.0,11.02,41.0
140.03130078315735,92052.0,11.02,41.0
140.09133291244507,92072.0,11.02,41.0
140.14933395385742,92223.0,11.02,41.0
140.20931959152222,92121.0,11.02,41.0
140.26932406425476,91890.0,11.02,41.0
140.32932829856873,92016.0,11.02,41.0
140.38942742347717,92163.0,11.02,41.0
140.4492826461792,92260.0,11.02,41.0
140.5093379020691,92394.0,11.02,41.0
140.5693609714508,92347.0,11.02,41.0
140.62929105758667,92325.0,11.02,41.0
140.68931412696838,92396.0,11.02,41.0
140.74932289123535,92352.0,11.02,41.0
140.80933332443237,92349.0,11.02,41.0
140.86928915977478,92451.0,11.02,41.0
140.927316904068,92437.0,11.02,41.0
140.98734736442566,92368.0,11.02,41.0
141.0473301410675,92443.0,11.02,41.0
141.10731649398804,92492.0,11.02,41.0
141.16729474067688,92322.0,11.02,41.0
141.22732949256897,92063.0,11.02,41.0
141.28728580474854,92064.0,11.02,41.0
141.34735226631165,92179.0,11.02,41.0
141.40731930732727,92248.0,11.02,41.0
141.46738290786743,92342.0,11.02,41.0
141.52736139297485,92267.0,11.02,41.0
141.58729362487793,92205.0,11.02,41.0
141.6473104953766,92322.0,11.02,41.0
141.706280708313,92437.0,11.02,41.0
141.7663073539734,92505.0,11.02,41.0
141.82631659507751,92487.0,11.02,41.0
141.8863663673401,92562.0,11.02,41.0
141.9462924003601,92668.0,11.02,41.0
142.00631737709045,92557.0,11.02,41.0
142.06431221961975,92415.0,11.02,41.0
142.12428832054138,92462.0,11.02,41.0
142.18434238433838,92385.0,11.02,41.0
142.24431991577148,92410.0,11.02,41.0
142.3043053150177,92502.0,11.02,41.0
142.3643021583557,92449.0,11.02,41.0
142.4243392944336,92349.0,11.02,41.0
142.48431849479675,92413.0,11.02,41.0
142.54434204101562,92337.0,11.02,41.0
142.6042857170105,92460.0,11.02,41.0
142.6643431186676,92507.0,11.02,41.0
142.72428822517395,92536.0,11.02,41.0
142.78425765037537,92634.0,11.02,41.0
142.84228229522705,92508.0,11.02,41.0
142.90229725837708,92270.0,11.02,41.0
142.96229147911072,92156.0,11.02,41.0
143.02236342430115,92330.0,11.02,41.0
143.08228707313538,92466.0,11.02,41.0
143.14229249954224,92466.0,11.02,41.0
143.2023298740387,92363.0,11.02,41.0
143.26229190826416,92380.0,11.02,41.0
143.32228660583496,92496.0,11.02,41.0
143.38229727745056,92660.0,11.02,41.0
143.44223928451538,92673.0,11.02,41.0
143.50228691101074,92677.0,11.02,41.0
143.5623254776001,92692.0,11.02,41.0
143.6203052997589,92741.0,11.02,41.0
143.68027901649475,92784.0,11.02,41.0
143.74029755592346,92852.0,11.02,41.0
143.8003602027893,92804.0,11.02,41.0
143.86030101776123,92991.0,11.02,41.0
143.92028856277466,93043.0,11.02,41.0
143.9803066253662,92695.0,11.02,41.0
144.04028582572937,92511.0,11.02,41.0
144.10030913352966,92543.0,11.02,41.0
144.16027331352234,92681.0,11.02,41.0
144.2202935218811,92712.0,11.02,41.0
144.28034257888794,92682.0,11.02,41.0
144.3402795791626,92544.0,11.02,41.0
144.39827418327332,92565.0,11.02,41.0
144.4582757949829,92849.0,11.02,41.0
144.51829075813293,92998.0,11.02,41.0
144.57832193374634,92997.0,11.02,41.0
144.63824725151062,92921.0,11.02,41.0
144.69823932647705,92851.0,11.02,41.0
144.75829768180847,92887.0,11.02,41.0
144.81828331947327,93037.0,11.02,41.0
144.87827444076538,92926.0,11.02,41.0
144.9382770061493,92513.0,11.02,41.0
144.99827194213867,92542.0,11.02,41.0
145.05824303627014,92620.0,11.02,41.0
145.11826157569885,92680.0,11.02,41.0
145.1762580871582,92711.0,11.02,41.0
145.2362368106842,92582.0,11.02,41.0
145.29630613327026,92565.0,11.02,41.0
145.35625457763672,92602.0,11.02,41.0
145.41623973846436,92613.0,11.02,41.0
145.47628593444824,92664.0,11.02,41.0
145.53626680374146,92712.0,11.02,41.0
145.59625363349915,92709.0,11.02,41.0
145.6562533378601,92740.0,11.02,41.0
145.7162971496582,92944.0,11.02,41.0
145.77621459960938,92935.0,11.02,41.0
145.8362627029419,92573.0,11.02,41.0
145.89620447158813,92560.0,11.02,41.0
145.954270362854,92414.0,11.02,41.0
146.01424622535706,92618.0,11.02,41.0
146.0742530822754,92768.0,11.02,41.0
146.13430500030518,92790.0,11.02,41.0
146.19426703453064,92756.0,11.02,41.0
146.25426578521729,92746.0,11.02,41.0
146.3142602443695,92849.0,2.61,41.0
146.3742914199829,92943.0,2.61,41.0
146.43424248695374,92938.0,2.61,41.0
146.49423098564148,92894.0,2.61,41.0
146.55421376228333,92920.0,2.61,41.0
146.61429715156555,92957.0,2.61,41.0
146.6722617149353,92732.0,2.61,41.0
146.7322642803192,92540.0,2.61,41.0
146.792231798172,92518.0,2.61,41.0
146.8522584438324,92638.0,2.61,41.0
146.9123134613037,92641.0,2.61,41.0
146.9722604751587,92646.0,2.61,41.0
147.03225708007812,92568.0,2.61,41.0
147.09222221374512,92604.0,2.61,41.0
147.1522343158722,92635.0,2.61,41.0
147.212256193161,92718.0,2.61,41.0
147.27222800254822,92720.0,2.61,41.0
147.3322651386261,92702.0,2.61,41.0
147.39229679107666,92755.0,2.61,41.0
147.45024275779724,92825.0,2.61,41.0
147.51021337509155,92722.0,2.61,41.0
147.5702931880951,92487.0,2.61,41.0
147.6302044391632,92424.0,2.61,41.0
147.6902573108673,92647.0,2.61,41.0
147.75028252601624,92746.0,2.61,41.0
147.81025552749634,92734.0,2.61,41.0
147.87026357650757,92611.0,2.61,41.0
147.93022108078003,92596.0,2.61,41.0
147.98922204971313,92754.0,2.61,41.0
148.04921078681946,92768.0,2.61,41.0
148.1092483997345,92901.0,2.61,41.0
148.16921401023865,92893.0,2.61,41.0
148.2291977405548,92877.0,2.61,41.0
148.28925967216492,93036.0,2.61,41.0
148.34922695159912,93061.0,2.61,41.0
148.40927696228027,93024.0,2.61,41.0
148.46923661231995,93143.0,27.84,35.0
148.52925992012024,93167.0,27.84,35.0
148.58721947669983,93105.0,27.84,35.0
148.6472682952881,92744.0,27.84,35.0
148.70721793174744,92587.0,27.84,35.0
148.76723337173462,92663.0,27.84,35.0
148.82719159126282,92791.0,27.84,35.0
148.88726139068604,92795.0,27.84,35.0
148.94728016853333,92759.0,27.84,35.0
149.0072455406189,92761.0,27.84,35.0
149.06725406646729,92792.0,27.84,35.0
149.12723350524902,92870.0,27.84,35.0
149.18719339370728,92897.0,27.84,35.0
149.24724960327148,92870.0,27.84,35.0
149.3072428703308,92926.0,27.84,35.0
149.36524176597595,93025.0,27.84,35.0
149.42530608177185,93032.0,27.84,35.0
149.48521399497986,93071.0,27.84,35.0
149.5452480316162,93189.0,27.84,35.0
149.60524725914001,93102.0,27.84,35.0
149.66523694992065,92738.0,27.84,35.0
149.7252345085144,92663.0,27.84,35.0
149.78523969650269,92564.0,27.84,35.0
149.84523916244507,92823.0,27.84,35.0
149.90519261360168,92860.0,27.84,35.0
149.96522283554077,92889.0,27.84,35.0
150.02517652511597,92794.0,27.84,35.0
150.08515882492065,92824.0,27.84,35.0
150.1452100276947,92885.0,27.84,35.0
150.20318937301636,92931.0,27.84,35.0
150.26323652267456,92952.0,27.84,35.0
150.32321453094482,93030.0,27.84,35.0
150.38318037986755,92953.0,27.84,35.0
150.44326758384705,92884.0,27.84,35.0
150.5031933784485,92903.0,27.84,35.0
150.56321382522583,93012.0,27.84,35.0
150.6231997013092,92882.0,27.84,35.0
150.6832151412964,92457.0,27.84,35.0
150.7431879043579,92468.0,27.84,35.0
150.8032202720642,92557.0,27.84,35.0
150.8632538318634,92648.0,27.84,35.0
150.92323112487793,92721.0,27.84,35.0
150.98120594024658,92634.0,27.84,35.0
151.0412311553955,92634.0,27.84,35.0
151.10118055343628,92681.0,27.84,35.0
151.16122770309448,92743.0,27.84,35.0
151.22123456001282,92626.0,27.84,35.0
151.2812101840973,92508.0,27.84,35.0
151.3411865234375,92576.0,27.84,35.0
151.4011890888214,92670.0,27.84,35.0
151.46121191978455,92879.0,27.84,35.0
151.52121424674988,92936.0,27.84,35.0
151.5811789035797,92670.0,27.84,35.0
151.64124393463135,92340.0,27.84,35.0
151.7012062072754,92341.0,27.84,35.0
151.75925612449646,92522.0,27.84,35.0
151.81918954849243,92639.0,27.84,35.0
151.87920928001404,92572.0,27.84,35.0
151.9392192363739,92355.0,27.84,35.0
151.9992413520813,92279.0,27.84,35.0
152.05922961235046,92350.0,27.84,35.0
152.11919808387756,92391.0,27.84,35.0
152.17922258377075,92423.0,27.84,35.0
152.23916125297546,92414.0,27.84,35.0
152.29920530319214,92346.0,27.84,35.0
152.35916352272034,92546.0,27.84,35.0
152.41918635368347,92294.0,27.84,35.0
152.47919964790344,92000.0,27.84,35.0
152.5372142791748,92130.0,27.84,35.0
152.59719491004944,92246.0,27.84,35.0
152.65718579292297,92312.0,27.84,35.0
152.71718978881836,92370.0,27.84,35.0
152.7771933078766,92335.0,27.84,35.0
152.83724522590637,92418.0,27.84,35.0
152.89720726013184,92622.0,27.84,35.0
152.95719385147095,92731.0,27.84,35.0
153.0172028541565,92857.0,27.84,35.0
153.07720923423767,92844.0,27.84,35.0
153.13720536231995,92743.0,27.84,35.0
153.19717717170715,92822.0,27.84,35.0
153.2572054862976,92840.0,27.84,35.0
153.31520318984985,92560.0,27.84,35.0
153.37520623207092,92447.0,27.84,35.0
153.43519806861877,92527.0,27.84,35.0
153.49518084526062,92500.0,11.94,35.0
153.55520606040955,92552.0,11.94,35.0
153.61526942253113,92525.0,11.94,35.0
153.67519164085388,92410.0,11.94,35.0
153.73525047302246,92354.0,11.94,35.0
153.79515314102173,92487.0,11.94,35.0
153.85516214370728,92538.0,11.94,35.0
153.91516399383545,92473.0,11.94,35.0
153.97516775131226,92414.0,11.94,35.0
154.03517937660217,92516.0,11.94,35.0
154.09319710731506,92636.0,11.94,35.0
154.15319061279297,92490.0,11.94,35.0
154.21318912506104,92258.0,11.94,35.0
154.27320837974548,92210.0,11.94,35.0
154.333172082901,92429.0,11.94,35.0
154.39322328567505,92422.0,11.94,35.0
154.45311999320984,92618.0,11.94,35.0
154.51318407058716,92561.0,11.94,35.0
154.57316327095032,92599.0,11.94,35.0
154.63313460350037,92851.0,11.94,35.0
154.69314217567444,92876.0,11.94,35.0
154.75317788124084,92903.0,11.94,35.0
154.81315779685974,92826.0,11.94,35.0
154.87116384506226,92775.0,11.94,35.0
154.93109464645386,92829.0,11.94,35.0
154.99117016792297,93061.0,40.11,38.0
155.05119919776917,93021.0,40.11,38.0
155.1111660003662,92679.0,40.11,38.0
155.17117166519165,92657.0,40.11,38.0
155.23116970062256,92550.0,40.11,38.0
155.2911400794983,92789.0,40.11,38.0
155.35114860534668,92968.0,40.11,38.0
155.411199092865,93315.0,40.11,38.0
155.471177816391,93376.0,40.11,38.0
155.53120017051697,93374.0,40.11,38.0
155.59117722511292,93464.0,40.11,38.0
155.65115976333618,93421.0,40.11,38.0
155.70921993255615,93515.0,40.11,38.0
155.76916360855103,93450.0,40.11,38.0
155.82912230491638,93433.0,40.11,38.0
155.88916397094727,93577.0,40.11,38.0
155.94918370246887,93419.0,40.11,38.0
156.00918650627136,92928.0,40.11,38.0
156.06910753250122,92862.0,40.11,38.0
156.12916326522827,92780.0,40.11,38.0
156.18912172317505,92804.0,40.11,38.0
156.2491250038147,92891.0,40.11,38.0
156.30915713310242,92687.0,40.11,38.0
156.36917853355408,92608.0,40.11,38.0
156.42915153503418,92506.0,40.11,38.0
156.4871232509613,92582.0,40.11,38.0
156.5471396446228,92608.0,40.11,38.0
156.60715079307556,92582.0,40.11,38.0
156.66718125343323,92507.0,40.11,38.0
156.72716355323792,92551.0,40.11,38.0
156.78714680671692,92554.0,40.11,38.0
156.84713530540466,92157.0,40.11,38.0
156.90717267990112,91935.0,40.11,38.0
156.96714687347412,92002.0,40.11,38.0
157.0271773338318,92017.0,40.11,38.0
157.0871458053589,91957.0,40.11,38.0
157.14718437194824,91973.0,40.11,38.0
157.2071075439453,91974.0,40.11,38.0
157.26521825790405,92097.0,40.11,38.0
157.32517671585083,92183.0,40.11,38.0
157.38514184951782,92053.0,40.11,38.0
157.44518733024597,91911.0,40.11,38.0
157.505136013031,91896.0,40.11,38.0
157.56510400772095,91682.0,40.11,38.0
157.62513947486877,91185.0,40.11,38.0
157.6851315498352,91237.0,40.11,38.0
157.74511623382568,91361.0,40.11,38.0
157.80509734153748,91566.0,40.11,38.0
157.86520290374756,91728.0,40.11,38.0
157.92516255378723,91751.0,40.11,38.0
157.9851427078247,91779.0,40.11,38.0
158.04315209388733,92057.0,40.11,38.0
158.10314917564392,92197.0,40.11,38.0
158.1631395816803,92234.0,40.11,38.0
158.22314453125,92373.0,40.11,38.0
158.28316640853882,92432.0,40.11,38.0
158.3430917263031,91898.0,40.11,38.0
158.40319323539734,91082.0,40.11,38.0
158.46314024925232,90555.0,40.11,38.0
158.52313208580017,91121.0,40.11,38.0
158.58313131332397,91357.0,40.11,38.0
158.64314579963684,91592.0,40.11,38.0
158.7031533718109,91171.0,40.11,38.0
158.76311206817627,91017.0,40.11,38.0
158.82108998298645,91187.0,40.11,38.0
158.8811457157135,91364.0,40.11,38.0
158.94108724594116,91714.0,40.11,38.0
159.00116991996765,91704.0,40.11,38.0
159.06111431121826,91293.0,40.11,38.0
159.12114715576172,91076.0,40.11,38.0
159.1811306476593,91125.0,40.11,38.0
159.2411105632782,91304.0,40.11,38.0
159.30115509033203,91409.0,40.11,38.0
159.36119437217712,91461.0,40.11,38.0
159.42115783691406,91416.0,40.11,38.0
159.48113203048706,91397.0,40.11,38.0
159.54113626480103,91296.0,40.11,38.0
159.59908533096313,91295.0,40.11,38.0
159.65907740592957,91287.0,40.11,38.0
159.71911811828613,91213.0,40.11,38.0
159.7790961265564,90749.0,40.11,38.0
159.83904910087585,90572.0,40.11,38.0
159.89911913871765,90392.0,40.11,38.0
159.95911145210266,90432.0,40.11,38.0
160.01909637451172,90414.0,40.11,38.0
160.07909274101257,90535.0,40.11,38.0
160.13906526565552,90532.0,40.11,38.0
160.19909358024597,90575.0,40.11,38.0
160.25916242599487,90579.0,40.11,38.0
160.31908917427063,90583.0,40.11,38.0
160.3770682811737,90510.0,40.11,38.0
160.43710136413574,90623.0,40.11,38.0
160.4971160888672,90706.0,40.11,38.0
160.5571310520172,90793.0,40.11,38.0
160.61710667610168,91013.0,40.11,38.0
160.6770420074463,91074.0,40.11,38.0
160.73711824417114,91200.0,40.11,38.0
160.79711318016052,91109.0,40.11,38.0
160.8571116924286,91070.0,40.11,38.0
160.9170787334442,91055.0,40.11,38.0
160.97710871696472,90992.0,40.11,38.0
161.03709435462952,91106.0,40.11,38.0
161.0951144695282,90961.0,40.11,38.0
161.15511322021484,90907.0,40.11,38.0
161.21506476402283,91047.0,40.11,38.0
161.275048494339,90904.0,40.11,38.0
161.33511304855347,90345.0,40.11,38.0
161.39508652687073,90288.0,40.11,38.0
161.45510578155518,90200.0,40.11,38.0
161.5150625705719,90193.0,40.11,38.0
161.57507348060608,90253.0,40.11,38.0
161.6351044178009,90244.0,40.11,38.0
161.69514083862305,90078.0,40.11,38.0
161.75505590438843,90107.0,40.11,38.0
161.81507802009583,90122.0,40.11,38.0
161.8730547428131,89998.0,40.11,38.0
161.93310928344727,89825.0,40.11,38.0
161.99305248260498,89927.0,40.11,38.0
162.053076505661,89952.0,40.11,38.0
162.11305856704712,89548.0,40.11,38.0
162.1731309890747,89525.0,40.11,38.0
162.23308300971985,89580.0,40.11,38.0
162.29303884506226,89448.0,40.11,38.0
162.35304069519043,89508.0,40.11,38.0
162.41302728652954,89539.0,40.11,38.0
162.47305250167847,89569.0,40.11,38.0
162.53309512138367,89698.0,40.11,38.0
162.5930528640747,89948.0,40.11,38.0
162.65104484558105,90078.0,40.11,38.0
162.7110435962677,89970.0,40.11,38.0
162.7710313796997,89374.0,40.11,38.0
162.83105492591858,89089.0,40.11,38.0
162.89107871055603,88662.0,40.11,38.0
162.95108246803284,88131.0,40.11,38.0
163.01106071472168,87660.0,40.11,38.0
163.07112312316895,87765.0,40.11,38.0
163.13106560707092,88150.0,40.11,38.0
163.1910858154297,88400.0,40.11,38.0
163.25111508369446,88480.0,40.11,38.0
163.31110787391663,88384.0,40.11,38.0
163.371080160141,88213.0,40.11,38.0
163.42906546592712,88267.0,40.11,38.0
163.48907780647278,88261.0,40.11,38.0
163.5491077899933,88218.0,40.11,38.0
163.60905504226685,88387.0,40.11,38.0
163.66902875900269,88444.0,40.11,38.0
163.72909426689148,88258.0,40.11,38.0
163.78906512260437,87504.0,40.11,38.0
163.8490912914276,87304.0,40.11,38.0
163.90908575057983,87673.0,40.11,38.0
163.96903538703918,87633.0,40.11,38.0
164.0290207862854,87706.0,40.11,38.0
164.08904838562012,87533.0,40.11,38.0
164.14910244941711,87688.0,40.11,38.0
164.20708656311035,87998.0,40.11,38.0
164.26702523231506,87961.0,40.11,38.0
164.32702374458313,87701.0,40.11,38.0
164.38707780838013,86822.0,40.11,38.0
164.4470546245575,86556.0,40.11,38.0
164.5070445537567,86621.0,40.11,38.0
164.5670599937439,86524.0,40.11,38.0
164.62700271606445,86706.0,40.11,38.0
164.6870288848877,87104.0,40.11,38.0
164.74706196784973,87357.0,40.11,38.0
164.80704021453857,87453.0,40.11,38.0
164.86709356307983,87288.0,40.11,38.0
164.92707347869873,87108.0,40.11,38.0
164.98505973815918,87227.0,40.11,38.0
165.04506468772888,87457.0,40.11,38.0
165.10501217842102,87672.0,40.11,38.0
165.16504430770874,87829.0,40.11,38.0
165.22506880760193,87815.0,40.11,38.0
165.2850959300995,87686.0,40.11,38.0
165.3450095653534,87006.0,40.11,38.0
165.40507221221924,86600.0,40.11,38.0
165.46505427360535,86939.0,40.11,38.0
165.52502155303955,87239.0,40.11,38.0
165.5850887298584,87148.0,40.11,38.0
165.64502334594727,87024.0,40.11,38.0
165.70504188537598,86875.0,40.11,38.0
165.76306080818176,86892.0,40.11,38.0
165.82303714752197,86970.0,40.11,38.0
165.88308143615723,87005.0,40.11,38.0
165.9429965019226,86800.0,40.11,38.0
166.00310516357422,86879.0,40.11,38.0
166.06301021575928,87104.0,40.11,38.0
166.12306189537048,86776.0,40.11,38.0
166.18303513526917,86514.0,40.11,38.0
166.24304389953613,86413.0,40.11,38.0
166.30304265022278,86480.0,40.11,38.0
166.363018989563,86620.0,40.11,38.0
166.42305994033813,86807.0,40.11,38.0
166.48306012153625,86366.0,40.11,38.0
166.542986869812,86168.0,40.11,38.0
166.60108160972595,86125.0,40.11,38.0
166.661034822464,86069.0,40.11,38.0
166.7210512161255,86146.0,40.11,38.0
166.7810356616974,86327.0,40.11,38.0
166.8410587310791,86386.0,40.11,38.0
166.9010488986969,86113.0,40.11,38.0
166.96105933189392,85906.0,40.11,38.0
167.02107214927673,85740.0,40.11,38.0
167.08103346824646,85276.0,40.11,38.0
167.14106106758118,84939.0,40.11,38.0
167.2010326385498,85180.0,40.11,38.0
167.2610285282135,85592.0,40.11,38.0
167.32103037834167,85745.0,40.11,38.0
167.37897944450378,85759.0,40.11,38.0
167.43904995918274,85517.0,40.11,38.0
167.4989948272705,85434.0,40.11,38.0
167.5590672492981,85491.0,40.11,38.0
167.61903047561646,85690.0,40.11,38.0
167.6789951324463,85921.0,40.11,38.0
167.7389862537384,85902.0,40.11,38.0
167.7989857196808,85692.0,40.11,38.0
167.85899591445923,85609.0,40.11,38.0
167.91897296905518,85700.0,40.11,38.0
167.9789958000183,85635.0,40.11,38.0
168.03899598121643,85498.0,40.11,38.0
168.09896159172058,85357.0,40.11,38.0
168.156977891922,85160.0,40.11,38.0
168.2169964313507,85417.0,40.11,38.0
168.27706599235535,85627.0,40.11,38.0
168.33697175979614,85621.0,40.11,38.0
168.39698457717896,85334.0,40.11,38.0
168.45699763298035,85136.0,40.11,38.0
168.51704025268555,85091.0,40.11,38.0
168.57704997062683,85028.0,40.11,38.0
168.6370348930359,85307.0,40.11,38.0
168.69700241088867,85414.0,40.11,38.0
168.7570071220398,85644.0,40.11,38.0
168.8170359134674,85515.0,40.11,38.0
168.8750340938568,85156.0,40.11,38.0
168.934960603714,84870.0,40.11,38.0
168.99497747421265,84939.0,40.11,38.0
169.05500316619873,85183.0,40.11,38.0
169.11501836776733,85272.0,40.11,38.0
169.174959897995,85260.0,40.11,38.0
169.2350354194641,85146.0,40.11,38.0
169.2950313091278,85054.0,40.11,38.0
169.35502195358276,85571.0,40.11,38.0
169.41499519348145,85419.0,40.11,38.0
169.4749960899353,85574.0,40.11,38.0
169.5349645614624,85989.0,40.11,38.0
169.5949559211731,86495.0,40.11,38.0
169.65300726890564,86940.0,40.11,38.0
169.71299576759338,86690.0,40.11,38.0
169.7729640007019,86544.0,40.11,38.0
169.83299660682678,86516.0,40.11,38.0
169.89296770095825,86785.0,40.11,38.0
169.9529685974121,86970.0,40.11,38.0
170.01303958892822,87105.0,40.11,38.0
170.0729660987854,86842.0,40.11,38.0
170.13299131393433,86795.0,40.11,38.0
170.192969083786,86851.0,40.11,38.0
170.25299191474915,86528.0,40.11,38.0
170.3129367828369,86765.0,40.11,38.0
170.3729898929596,87378.0,40.11,38.0
170.43098521232605,87512.0,40.11,38.0
170.49096965789795,87114.0,40.11,38.0
170.5510048866272,86711.0,40.11,38.0
170.6109549999237,86455.0,40.11,38.0
170.67097091674805,86294.0,40.11,38.0
170.73095297813416,86364.0,40.11,38.0
170.79092693328857,86086.0,40.11,38.0
170.8510468006134,85736.0,40.11,38.0
170.91092705726624,85793.0,40.11,38.0
170.97094130516052,85911.0,40.11,38.0
171.03093314170837,86058.0,40.11,38.0
171.0909345149994,86175.0,40.11,38.0
171.15102171897888,86506.0,40.11,38.0
171.20893478393555,86522.0,40.11,38.0
171.26894974708557,85966.0,40.11,38.0
171.32891631126404,85524.0,40.11,38.0
171.38901162147522,85085.0,40.11,38.0
171.44901323318481,84636.0,40.11,38.0
171.5089943408966,85160.0,40.11,38.0
171.56893157958984,85246.0,40.11,38.0
171.62894821166992,85318.0,40.11,38.0
171.68893790245056,85492.0,40.11,38.0
171.7479293346405,85391.0,40.11,38.0
171.8079490661621,85242.0,40.11,38.0
171.86903381347656,85283.0,40.11,38.0
171.9290111064911,85277.0,40.11,38.0
171.98692989349365,85477.0,40.11,38.0
172.0469400882721,85351.0,40.11,38.0
172.10800981521606,85002.0,40.11,38.0
172.16794228553772,85041.0,40.11,38.0
172.22694063186646,85166.0,40.11,38.0
172.2870171070099,85385.0,40.11,38.0
172.34594011306763,85481.0,40.11,38.0
172.4070053100586,85584.0,40.11,38.0
172.4659721851349,85548.0,40.11,38.0
172.52597880363464,85462.0,40.11,38.0
172.5859603881836,85670.0,40.11,38.0
172.646981716156,85627.0,40.11,38.0
172.70699381828308,85403.0,40.11,38.0
172.7649610042572,85558.0,40.11,38.0
172.8249614238739,85508.0,40.11,38.0
172.88495111465454,86067.0,40.11,38.0
172.944997549057,86031.0,40.11,38.0
173.00494575500488,85760.0,40.11,38.0
173.0649220943451,85654.0,40.11,38.0
173.12499737739563,85559.0,40.11,38.0
173.18496251106262,85730.0,40.11,38.0
173.24498963356018,85720.0,40.11,38.0
173.30494594573975,85741.0,40.11,38.0
173.36494851112366,85729.0,40.11,38.0
173.42490363121033,85880.0,40.11,38.0
173.48294019699097,86006.0,40.11,38.0
173.542906999588,86096.0,40.11,38.0
173.60294675827026,86011.0,40.11,38.0
173.6629514694214,86207.0,40.11,38.0
173.72296500205994,86284.0,40.11,38.0
173.78298330307007,86285.0,40.11,38.0
173.84294724464417,85757.0,40.11,38.0
173.90294528007507,85164.0,40.11,38.0
173.96294474601746,85075.0,40.11,38.0
174.02293491363525,84905.0,40.11,38.0
174.082941532135,84522.0,40.11,38.0
174.1429305076599,84565.0,40.11,38.0
174.20290780067444,84979.0,40.11,38.0
174.26094365119934,85394.0,40.11,38.0
174.32088804244995,85422.0,40.11,38.0
174.3809108734131,85315.0,40.11,38.0
174.44090604782104,84818.0,40.11,38.0
174.50093722343445,84702.0,40.11,38.0
174.56092953681946,84843.0,40.11,38.0
174.62097787857056,85019.0,40.11,38.0
174.6808741092682,84940.0,40.11,38.0
174.7408730983734,85072.0,40.11,38.0
174.80087447166443,84848.0,40.11,38.0
174.86090803146362,84410.0,40.11,38.0
174.92087769508362,84229.0,40.11,38.0
174.9808931350708,84292.0,40.11,38.0
175.0389187335968,84553.0,40.11,38.0
175.09888792037964,84899.0,40.11,38.0
175.15888094902039,84912.0,40.11,38.0
175.21890330314636,84882.0,40.11,38.0
175.27890992164612,85222.0,40.11,38.0
175.33888387680054,85365.0,40.11,38.0
175.3988971710205,85634.0,40.11,38.0
175.45890378952026,85575.0,40.11,38.0
175.51890015602112,85418.0,40.11,38.0
175.57889199256897,85031.0,40.11,38.0
175.63891315460205,84009.0,40.11,38.0
175.6988925933838,83520.0,40.11,38.0
175.75889372825623,83864.0,40.11,38.0
175.81689977645874,84024.0,40.11,38.0
175.87689352035522,84358.0,40.11,38.0
175.93691992759705,84430.0,40.11,38.0
175.99691796302795,84157.0,40.11,38.0
176.05691266059875,83939.0,40.11,38.0
176.11689972877502,83514.0,40.11,38.0
176.17694187164307,83499.0,40.11,38.0
176.23689460754395,83646.0,40.11,38.0
176.29691791534424,83820.0,40.11,38.0
176.35691165924072,83864.0,40.11,38.0
176.41688108444214,83398.0,40.11,38.0
176.47690057754517,83271.0,40.11,38.0
176.53692650794983,83601.0,40.11,38.0
176.59697604179382,83287.0,40.11,38.0
176.65492987632751,82888.0,40.11,38.0
176.71491813659668,82732.0,40.11,38.0
176.77492666244507,82637.0,40.11,38.0
176.8348846435547,82606.0,40.11,38.0
176.8948941230774,83094.0,40.11,38.0
176.95489406585693,83447.0,40.11,38.0
177.01487731933594,83395.0,40.11,38.0
177.0748953819275,83282.0,40.11,38.0
177.13488721847534,83012.0,40.11,38.0
177.194895029068,82440.0,40.11,38.0
177.2548849582672,82243.0,40.11,38.0
177.3148889541626,82368.0,40.11,38.0
177.37290811538696,82662.0,40.11,38.0
177.4328899383545,82636.0,40.11,38.0
177.49289870262146,82324.0,40.11,38.0
177.55289006233215,81967.0,40.11,38.0
177.61290550231934,81766.0,40.11,38.0
177.67289972305298,81993.0,40.11,38.0
177.7328917980194,81279.0,40.11,38.0
177.79289174079895,81241.0,40.11,38.0
177.85290932655334,81286.0,40.11,38.0
177.91289591789246,81452.0,40.11,38.0
177.97290134429932,81708.0,40.11,38.0
178.03288793563843,81853.0,40.11,38.0
178.09289836883545,81799.0,40.11,38.0
178.15090680122375,81724.0,40.11,38.0
178.2109076976776,81885.0,40.11,38.0
178.27091479301453,81576.0,40.11,38.0
178.33091616630554,81241.0,40.11,38.0
178.39089155197144,81235.0,40.11,38.0
178.4509072303772,81369.0,40.11,38.0
178.51091289520264,81434.0,40.11,38.0
178.57091617584229,81481.0,40.11,38.0
178.6309130191803,81425.0,40.11,38.0
178.69093346595764,81193.0,40.11,38.0
178.75090432167053,80827.0,40.11,38.0
178.81091046333313,81367.0,40.11,38.0
178.87092852592468,81631.0,40.11,38.0
178.9288785457611,81524.0,40.11,38.0
178.98889875411987,81812.0,40.11,38.0
179.0488998889923,81651.0,40.11,38.0
179.1089153289795,81305.0,40.11,38.0
179.16889882087708,80868.0,40.11,38.0
179.22889590263367,80948.0,40.11,38.0
179.28892254829407,81202.0,40.11,38.0
179.34890699386597,81347.0,40.11,38.0
179.40896320343018,81448.0,40.11,38.0
179.46893310546875,81523.0,40.11,38.0
179.52890276908875,81601.0,40.11,38.0
179.58892941474915,82759.0,40.11,38.0
179.64890551567078,83231.0,40.11,38.0
179.7068967819214,83072.0,40.11,38.0
179.76691102981567,83049.0,40.11,38.0
179.82692790031433,83193.0,40.11,38.0
179.88689994812012,83417.0,40.11,38.0
179.94689559936523,83570.0,40.11,38.0
180.00690841674805,83561.0,40.11,38.0
180.06690549850464,83658.0,40.11,38.0
180.12686133384705,83552.0,40.11,38.0
180.18691754341125,83429.0,40.11,38.0
180.24690175056458,83589.0,40.11,38.0
180.30693793296814,83511.0,40.11,38.0
180.3669171333313,83455.0,40.11,38.0
180.42693901062012,83409.0,40.11,38.0
180.48489809036255,83088.0,40.11,38.0
180.5448911190033,82896.0,40.11,38.0
180.60491108894348,82934.0,40.11,38.0
180.66491508483887,83012.0,40.11,38.0
180.72489190101624,82891.0,40.11,38.0
180.78488779067993,82555.0,40.11,38.0
180.8449170589447,82415.0,40.11,38.0
180.90490102767944,82602.0,40.11,38.0
180.96487855911255,82608.0,40.11,38.0
181.024897813797,82405.0,40.11,38.0
181.08487820625305,81825.0,40.11,38.0
181.14490842819214,81754.0,40.11,38.0
181.20490288734436,81880.0,40.11,38.0
181.26290941238403,81967.0,40.11,38.0
181.32289505004883,81984.0,40.11,38.0
181.38292455673218,81607.0,40.11,38.0
181.44291996955872,81407.0,40.11,38.0
181.50278639793396,81606.0,40.11,38.0
181.5628786087036,81637.0,40.11,38.0
181.62289357185364,81665.0,40.11,38.0
181.68293809890747,81638.0,40.11,38.0
181.74288535118103,81454.0,40.11,38.0
181.80287957191467,81435.0,40.11,38.0
181.8628635406494,81623.0,40.11,38.0
181.92288637161255,81690.0,40.11,38.0
181.98087239265442,81294.0,40.11,38.0
182.04094409942627,81416.0,40.11,38.0
182.10079646110535,81654.0,40.11,38.0
182.16092348098755,81862.0,40.11,38.0
182.2209029197693,82074.0,40.11,38.0
182.28088212013245,82176.0,40.11,38.0
182.34089136123657,82118.0,40.11,38.0
182.40088653564453,82292.0,40.11,38.0
182.46089458465576,82260.0,40.11,38.0
182.52091908454895,82050.0,40.11,38.0
182.58091688156128,82065.0,40.11,38.0
182.64094424247742,82302.0,40.11,38.0
182.70091104507446,82240.0,40.11,38.0
182.75883960723877,82362.0,40.11,38.0
182.8189377784729,82380.0,40.11,38.0
182.87891221046448,82340.0,40.11,38.0
182.9388861656189,82083.0,40.11,38.0
182.9988317489624,82784.0,40.11,38.0
183.05886816978455,83193.0,40.11,38.0
183.1188986301422,83305.0,40.11,38.0
183.17889785766602,83540.0,40.11,38.0
183.2388083934784,83140.0,40.11,38.0
183.29896211624146,83211.0,40.11,38.0
183.35892939567566,83065.0,40.11,38.0
183.41883730888367,83249.0,40.11,38.0
183.47880268096924,83251.0,40.11,38.0
183.53692412376404,83217.0,40.11,38.0
183.59691214561462,84174.0,40.11,38.0
183.65687608718872,84258.0,40.11,38.0
183.7169210910797,84281.0,40.11,38.0
183.77679705619812,83698.0,40.11,38.0
183.83681774139404,83451.0,40.11,38.0
183.89683151245117,83936.0,40.11,38.0
183.95689821243286,84521.0,40.11,38.0
184.0168764591217,84688.0,40.11,38.0
184.0768780708313,84708.0,40.11,38.0
184.1368441581726,84493.0,40.11,38.0
184.19686365127563,83980.0,40.11,38.0
184.25490427017212,84317.0,40.11,38.0
184.31490802764893,83880.0,40.11,38.0
184.3749270439148,84062.0,40.11,38.0
184.434796333313,84207.0,40.11,38.0
184.494788646698,84609.0,40.11,38.0
184.55499696731567,85280.0,40.11,38.0
184.61482620239258,85393.0,40.11,38.0
184.67484307289124,85138.0,40.11,38.0
184.73490715026855,84986.0,40.11,38.0
184.79488801956177,84696.0,40.11,38.0
184.85489964485168,84965.0,40.11,38.0
184.9149398803711,85574.0,40.11,38.0
184.97483944892883,85999.0,40.11,38.0
185.0328345298767,86224.0,40.11,38.0
185.09283661842346,86176.0,40.11,38.0
185.15284252166748,86192.0,40.11,38.0
185.21278834342957,86197.0,40.11,38.0
185.27285432815552,86521.0,40.11,38.0
185.33283305168152,86585.0,40.11,38.0
185.3928987979889,86573.0,40.11,38.0
185.45279145240784,86393.0,40.11,38.0
185.5128333568573,86201.0,40.11,38.0
185.572829246521,86230.0,40.11,38.0
185.63281965255737,86459.0,40.11,38.0
185.6928253173828,86306.0,40.11,38.0
185.75282669067383,86303.0,40.11,38.0
185.8108115196228,86100.0,40.11,38.0
185.87090253829956,86218.0,40.11,38.0
185.9308431148529,86176.0,40.11,38.0
185.99084210395813,86193.0,40.11,38.0
186.05084490776062,85991.0,40.11,38.0
186.11083316802979,86092.0,40.11,38.0
186.17077612876892,86138.0,40.11,38.0
186.23085761070251,86377.0,40.11,38.0
186.2907862663269,86434.0,40.11,38.0
186.350834608078,86358.0,40.11,38.0
186.41082119941711,86201.0,40.11,38.0
186.4708127975464,86492.0,40.11,38.0
186.53082299232483,86221.0,40.11,38.0
186.58880043029785,86208.0,40.11,38.0
186.64877367019653,86106.0,40.11,38.0
186.70890712738037,86173.0,40.11,38.0
186.76880168914795,86319.0,40.11,38.0
186.82883214950562,86429.0,40.11,38.0
186.88888931274414,86304.0,40.11,38.0
186.9487748146057,86147.0,40.11,38.0
187.00885939598083,86345.0,40.11,38.0
187.0688235759735,86301.0,40.11,38.0
187.12880301475525,86380.0,40.11,38.0
187.18882060050964,86441.0,40.11,38.0
187.24882650375366,86456.0,40.11,38.0
187.30881786346436,86713.0,40.11,38.0
187.3668155670166,86491.0,40.11,38.0
187.42682099342346,86339.0,40.11,38.0
187.48681545257568,86269.0,40.11,38.0
187.54684567451477,86270.0,40.11,38.0
187.60683345794678,86534.0,40.11,38.0
187.66681933403015,86455.0,40.11,38.0
187.72679901123047,86360.0,40.11,38.0
187.78680038452148,86019.0,40.11,38.0
187.8468153476715,86243.0,40.11,38.0
187.90676641464233,86324.0,40.11,38.0
187.9668254852295,86457.0,40.11,38.0
188.02674555778503,86375.0,40.11,38.0
188.08678460121155,86365.0,40.11,38.0
188.14475679397583,86599.0,40.11,38.0
188.2048053741455,86564.0,40.11,38.0
188.26474452018738,86348.0,40.11,38.0
188.32484698295593,86097.0,40.11,38.0
188.38475465774536,86365.0,40.11,38.0
188.44485187530518,86677.0,40.11,38.0
188.50480914115906,86763.0,40.11,38.0
188.5647897720337,86617.0,40.11,38.0
188.62482571601868,86556.0,40.11,38.0
188.68479919433594,86679.0,40.11,38.0
188.74479842185974,86671.0,40.11,38.0
188.80481028556824,86704.0,40.11,38.0
188.8647632598877,86729.0,40.11,38.0
188.9227955341339,86809.0,40.11,38.0
188.98281741142273,86913.0,40.11,38.0
189.04276394844055,86961.0,40.11,38.0
189.10284280776978,86973.0,40.11,38.0
189.16277170181274,86728.0,40.11,38.0
189.22280883789062,86573.0,40.11,38.0
189.2827844619751,86654.0,40.11,38.0
189.34277319908142,86873.0,40.11,38.0
189.4027440547943,86741.0,40.11,38.0
189.4627628326416,86618.0,40.11,38.0
189.52278447151184,86384.0,40.11,38.0
189.58280491828918,86556.0,40.11,38.0
189.64278650283813,86599.0,40.11,38.0
189.7007429599762,86736.0,40.11,38.0
189.76081728935242,86541.0,40.11,38.0
189.82078766822815,86503.0,40.11,38.0
189.88074207305908,86527.0,40.11,38.0
189.94077849388123,86586.0,40.11,38.0
190.00079226493835,86583.0,40.11,38.0
190.06078958511353,86600.0,40.11,38.0
190.1207811832428,86613.0,40.11,38.0
190.1808204650879,86295.0,40.11,38.0
190.2407684326172,85892.0,40.11,38.0
190.30078649520874,85863.0,40.11,38.0
190.3607931137085,85891.0,40.11,38.0
190.41881012916565,85964.0,40.11,38.0
190.47885298728943,86008.0,40.11,38.0
190.5387988090515,85864.0,40.11,38.0
190.5987753868103,85827.0,40.11,38.0
190.65877771377563,85775.0,40.11,38.0
190.71878218650818,85859.0,40.11,38.0
190.7787754535675,85915.0,40.11,38.0
190.83877038955688,85914.0,40.11,38.0
190.8988115787506,86127.0,40.11,38.0
190.95877075195312,86243.0,40.11,38.0
191.0187749862671,85851.0,40.11,38.0
191.0787844657898,85639.0,40.11,38.0
191.1387758255005,85697.0,40.11,38.0
191.1967749595642,85796.0,40.11,38.0
191.25676798820496,85909.0,40.11,38.0
191.31678462028503,85806.0,40.11,38.0
191.37678790092468,85543.0,40.11,38.0
191.4367277622223,85188.0,40.11,38.0
191.4967818260193,85278.0,40.11,38.0
191.55675292015076,85410.0,40.11,38.0
191.61676263809204,85304.0,40.11,38.0
191.67671871185303,85309.0,40.11,38.0
191.73678731918335,85345.0,40.11,38.0
191.79677438735962,85361.0,40.11,38.0
191.85674476623535,85085.0,40.11,38.0
191.91674900054932,84835.0,40.11,38.0
191.97473907470703,85149.0,40.11,38.0
192.03472018241882,85171.0,40.11,38.0
192.09477877616882,85104.0,40.11,38.0
192.15476083755493,84891.0,40.11,38.0
192.21476364135742,84961.0,40.11,38.0
192.27474188804626,84794.0,40.11,38.0
192.33476948738098,84624.0,40.11,38.0
192.39473915100098,84946.0,40.11,38.0
192.45473718643188,84850.0,40.11,38.0
192.51475191116333,84747.0,40.11,38.0
192.5747377872467,84919.0,40.11,38.0
192.63474655151367,84786.0,40.11,38.0
192.69472527503967,84756.0,40.11,38.0
192.75280117988586,84485.0,40.11,38.0
192.81280183792114,84444.0,40.11,38.0
192.87270379066467,84568.0,40.11,38.0
192.9327425956726,84457.0,40.11,38.0
192.9927315711975,84514.0,40.11,38.0
193.05274057388306,84479.0,40.11,38.0
193.1127064228058,84538.0,40.11,38.0
193.17278289794922,84715.0,40.11,38.0
193.23273873329163,84592.0,40.11,38.0
193.29279708862305,84645.0,40.11,38.0
193.3527398109436,84708.0,40.11,38.0
193.41274547576904,84745.0,40.11,38.0
193.47274160385132,84655.0,40.11,38.0
193.53074097633362,84489.0,40.11,38.0
193.59068274497986,84502.0,40.11,38.0
193.6507477760315,84538.0,40.11,38.0
193.71073269844055,84569.0,40.11,38.0
193.77073502540588,84871.0,40.11,38.0
193.8307363986969,84726.0,40.11,38.0
193.89072132110596,84557.0,40.11,38.0
193.95069098472595,84695.0,40.11,38.0
194.01068902015686,84666.0,40.11,38.0
194.07069754600525,84590.0,40.11,38.0
194.13070464134216,84619.0,40.11,38.0
